att1,att2,att3,att4,att5,att6,att7,att8,att9,att10,att11,att12,att13,att14,att15,att16,att17,att18,att19,att20,att21,att22,att23,att24,att25,att26,att27,att28,att29,att30,att31,att32,att33,att34,att35,att36,att37,att38,att39,att40,att41,att42,att43,att44,att45,att46,att47,att48,att49,att50,att51,att52,att53,att54,att55,att56,att57,att58,att59,att60,att61,att62,att63,att64,att65,att66,att67,att68,att69,att70,att71,att72,att73,att74,att75,att76,att77,att78,att79,att80,att81,att82,att83,att84,att85,att86,att87,att88,att89,att90,att91,att92,att93,att94,att95,att96,att97,att98,att99,att100,att101,att102,att103,att104,att105,att106,att107,att108,att109,att110,att111,att112,att113,att114,att115,att116,att117,att118,att119,att120,att121,att122,att123,att124,att125,att126,att127,att128,att129,att130,att131,att132,att133,att134,att135,att136,att137,att138,att139,att140,target
-0.112522,-2.827204,-3.773897,-4.349751,-4.376041,-3.474986,-2.181408,-1.818286,-1.250522,-0.477492,-0.363808,-0.491957,-0.421855,-0.309201,-0.495939,-0.342119,-0.355336,-0.367913,-0.316503,-0.412374,-0.471672,-0.413458,-0.364617,-0.449298,-0.471419,-0.424777,-0.462517,-0.552472,-0.475375,-0.6942,-0.701868,-0.593812,-0.660684,-0.713831,-0.769807,-0.672282,-0.653676,-0.639406,-0.559302,-0.59167,-0.493223,-0.463052,-0.301644,-0.232734,-0.125055,-0.153943,-0.024357,-0.065609,0.034999,0.061935,0.071195,0.123925,0.103124,0.225228,0.128683,0.302483,0.257276,0.196352,0.179383,0.244729,0.341217,0.328204,0.406042,0.446605,0.424068,0.481512,0.477844,0.624083,0.574585,0.598013,0.564592,0.607979,0.620635,0.656253,0.684748,0.694273,0.665584,0.575796,0.638135,0.614917,0.569083,0.468576,0.442818,0.468274,0.432493,0.407958,0.418623,0.362531,0.410959,0.471666,0.372167,0.337875,0.221405,0.273997,0.298664,0.263564,0.342564,0.419505,0.586607,0.860624,1.173345,1.258179,1.433789,1.700533,1.999043,2.125341,1.993291,1.932246,1.797437,1.522284,1.251168,0.99873,0.483722,0.023132,-0.194914,-0.220917,-0.243737,-0.254695,-0.291136,-0.25649,-0.227874,-0.322423,-0.289286,-0.31817,-0.363654,-0.393456,-0.266419,-0.256823,-0.288694,-0.162338,0.160348,0.792168,0.933541,0.796958,0.578621,0.25774,0.228077,0.123431,0.925286,0.193137,1
-1.100878,-3.99684,-4.285843,-4.506579,-4.022377,-3.234368,-1.566126,-0.992258,-0.75468,0.042321,0.148951,0.183527,0.294876,0.190233,0.235575,0.253487,0.221742,0.050233,0.178042,0.139563,0.046794,0.043007,0.106544,0.012654,0.003995,0.045724,-0.045999,-0.072667,-0.071078,-0.153866,-0.227254,-0.24927,-0.253489,-0.332835,-0.26433,-0.345825,-0.310781,-0.33416,-0.306178,-0.174563,-0.20616,-0.22448,-0.048684,-0.019621,0.094805,0.116786,0.185186,0.230526,0.138027,0.244426,0.271695,0.259003,0.269202,0.127065,0.202073,0.255983,0.153115,0.210216,0.191082,0.190927,0.21051,0.207108,0.204888,0.200865,0.34692,0.348002,0.254537,0.331975,0.35669,0.34993,0.43038,0.467502,0.486063,0.403188,0.478956,0.397392,0.46412,0.451795,0.361361,0.379831,0.342785,0.399107,0.387508,0.255703,0.284034,0.284993,0.250108,0.173036,0.149423,0.141685,0.222261,0.172847,0.150779,0.176566,0.280942,0.489939,0.660889,0.893193,1.026997,1.202394,1.55741,1.808428,2.164346,2.070747,1.903614,1.764455,1.507769,1.293428,0.894562,0.578016,0.244343,-0.286443,-0.515881,-0.732707,-0.832465,-0.803318,-0.836252,-0.777865,-0.774753,-0.733404,-0.721386,-0.832095,-0.711982,-0.751867,-0.75772,-0.85312,-0.766988,-0.688161,-0.519923,0.039406,0.560327,0.538356,0.656881,0.78749,0.724046,0.555784,0.476333,0.77382,1.119621,-1.43625,1
-0.567088,-2.59345,-3.87423,-4.584095,-4.187449,-3.151462,-1.74294,-1.490659,-1.18358,-0.394229,-0.282897,-0.356926,-0.287297,-0.399489,-0.473244,-0.379048,-0.399039,-0.178594,-0.339522,-0.498447,-0.337251,-0.42548,-0.423952,-0.46317,-0.493253,-0.549749,-0.529831,-0.530935,-0.502365,-0.417368,-0.526346,-0.471005,-0.676784,-0.898612,-0.610571,-0.530164,-0.765674,-0.581937,-0.537848,-0.556386,-0.438023,-0.436248,-0.400114,-0.134987,-0.239347,-0.120244,-0.001971,0.285,0.315646,0.107364,0.109521,0.158078,0.291898,0.261294,0.188407,0.140651,0.263365,0.287207,0.314317,0.177942,0.13829,0.321069,0.458168,0.251916,0.261353,0.277488,0.298793,0.459075,0.419147,0.520509,0.537761,0.603211,0.475634,0.521693,0.735248,0.729541,0.718523,0.498433,0.545441,0.604827,0.521296,0.394381,0.40502,0.597563,0.53113,0.377651,0.467701,0.457569,0.341116,0.407913,0.459127,0.403937,0.298191,0.461101,0.664659,0.587757,0.701325,0.917205,1.247987,1.505568,1.640105,1.810988,2.185398,2.262985,2.05292,1.890488,1.793033,1.564784,1.234619,0.900302,0.551957,0.258222,-0.128587,-0.092585,-0.168606,-0.495989,-0.395034,-0.328238,-0.448138,-0.26823,-0.456415,-0.357867,-0.317508,-0.434112,-0.549203,-0.324615,-0.268082,-0.220384,-0.117429,0.614059,1.284825,0.886073,0.531452,0.311377,-0.021919,-0.713683,-0.532197,0.321097,0.904227,-0.421797,1
0.490473,-1.914407,-3.616364,-4.318823,-4.268016,-3.88111,-2.99328,-1.671131,-1.333884,-0.965629,-0.183319,-0.101657,-0.273874,-0.127818,-0.195983,-0.213523,-0.176473,-0.156932,-0.149172,-0.18151,-0.180074,-0.246151,-0.27426,-0.14096,-0.277449,-0.382549,-0.311937,-0.360093,-0.405968,-0.571433,-0.524106,-0.537886,-0.606778,-0.661446,-0.683375,-0.746683,-0.635662,-0.625231,-0.540094,-0.674995,-0.653949,-0.566916,-0.524045,-0.414711,-0.387787,-0.284437,-0.072745,-0.160125,-0.09216,0.067165,0.081472,0.056182,0.024692,0.074395,0.152888,0.091033,0.11016,0.117278,0.113832,0.141808,0.271492,0.249743,0.197608,0.243939,0.386538,0.30002,0.309801,0.34467,0.38971,0.44285,0.43343,0.54871,0.525037,0.521975,0.623954,0.549159,0.669189,0.629928,0.539573,0.599283,0.497853,0.638093,0.611737,0.491908,0.573949,0.516245,0.57263,0.484591,0.374382,0.461773,0.414661,0.371639,0.44517,0.48417,0.556061,0.658724,0.861158,1.016397,1.135606,1.216973,1.553079,1.772155,2.000769,1.925003,1.898426,1.720953,1.501711,1.422492,1.023225,0.776341,0.504426,0.056382,-0.233161,-0.406388,-0.327528,-0.460868,-0.402536,-0.345752,-0.354206,-0.439959,-0.425326,-0.439789,-0.451835,-0.395926,-0.448762,-0.391789,-0.376307,-0.461069,-0.253524,0.213006,0.491173,0.350816,0.499111,0.600345,0.842069,0.952074,0.990133,1.086798,1.403011,-0.383564,1
0.800232,-0.874252,-2.384761,-3.973292,-4.338224,-3.802422,-2.53451,-1.783423,-1.59445,-0.753199,-0.298107,-0.428928,-0.491351,-0.361304,-0.339296,-0.324952,-0.290113,-0.363051,-0.525684,-0.597423,-0.575523,-0.567503,-0.504555,-0.618406,-0.682814,-0.743849,-0.815588,-0.826902,-0.782374,-0.929462,-0.999672,-1.060969,-1.007877,-1.028735,-1.122629,-1.02865,-1.046515,-1.063372,-1.122423,-0.983242,-0.855865,-0.791266,-0.588754,-0.518306,-0.397298,-0.354333,-0.207425,-0.088266,-0.168734,-0.067592,-0.032772,0.071899,0.081485,0.067225,0.13272,0.070241,0.100432,0.150418,0.109887,0.14886,0.208748,0.228236,0.273664,0.299524,0.327062,0.242314,0.386105,0.419087,0.439718,0.488954,0.541715,0.573869,0.633555,0.411671,0.440917,0.588705,0.530865,0.558965,0.606874,0.614729,0.537772,0.599294,0.640463,0.568399,0.54471,0.557959,0.537761,0.472292,0.466596,0.634417,0.425175,0.420777,0.440523,0.361028,0.359299,0.321366,0.421325,0.505122,0.677489,0.908693,0.98223,1.155363,1.336254,1.627534,1.717594,1.696487,1.741686,1.674078,1.546928,1.331738,1.110168,0.92221,0.521777,0.154852,-0.123861,-0.202998,-0.247956,-0.219122,-0.214695,-0.319215,-0.198597,-0.151618,-0.129593,-0.074939,-0.196807,-0.174795,-0.208833,-0.210754,-0.100485,0.197446,0.966606,1.148884,0.958434,1.059025,1.371682,1.277392,0.960304,0.97102,1.614392,1.421456,1
-1.507674,-3.57455,-4.478011,-4.408275,-3.321242,-2.105171,-1.481048,-1.301362,-0.49824,-0.286928,-0.390031,-0.263842,-0.318024,-0.185916,-0.26979,-0.322245,-0.309253,-0.391101,-0.303259,-0.319292,-0.407918,-0.421579,-0.48138,-0.447518,-0.52485,-0.469118,-0.582607,-0.679036,-0.652052,-0.846853,-0.766682,-0.735148,-0.788465,-0.851276,-0.83701,-0.843501,-0.827042,-0.878061,-0.755095,-0.809921,-0.679415,-0.583418,-0.45742,-0.377785,-0.360629,-0.231726,-0.236842,-0.047711,-0.052632,-0.074355,-0.094409,-0.082684,0.006754,-0.082925,-0.061499,0.021667,-0.040823,0.038088,0.041113,-0.107166,0.034701,0.085704,0.121856,0.088891,0.185678,0.229907,0.183204,0.286845,0.279562,0.418592,0.394609,0.42764,0.444844,0.468299,0.515425,0.636295,0.633252,0.64466,0.627545,0.530041,0.492823,0.479208,0.41336,0.475624,0.436494,0.406842,0.4433,0.317684,0.361321,0.361001,0.241426,0.318115,0.325151,0.478305,0.47608,0.532063,0.795485,0.945169,1.104937,1.290653,1.489217,1.7553,1.960918,2.042437,1.902829,1.902875,1.758074,1.425782,1.21022,0.928397,0.641264,0.175525,-0.10691,-0.132043,-0.165836,-0.098571,-0.266022,-0.237294,-0.137688,-0.100675,-0.107499,-0.210362,-0.130104,-0.107631,-0.161146,-0.101316,-0.095255,-0.069172,0.154878,0.695656,1.214931,1.089068,0.983369,1.014124,0.952629,0.749326,1.007076,1.63499,1.493365,-0.783134,1
-0.297161,-2.766635,-4.102185,-4.589669,-4.219357,-3.650443,-2.300518,-1.293917,-1.065658,-0.49052,0.050751,-0.076647,-0.094647,-0.15818,-0.068692,-0.140832,-0.069177,-0.134276,-0.059199,-0.131379,-0.181208,-0.215965,-0.217554,-0.25406,-0.331247,-0.304923,-0.273794,-0.347935,-0.387429,-0.404003,-0.425048,-0.5077,-0.582168,-0.532917,-0.637873,-0.655938,-0.549653,-0.686732,-0.583037,-0.636512,-0.620849,-0.468289,-0.423524,-0.324705,-0.263587,-0.127558,0.011175,0.024381,0.084773,0.059936,0.164471,0.162214,0.125991,0.143627,0.078259,0.178519,0.126597,0.175044,0.169457,0.299697,0.242495,0.297169,0.238402,0.249156,0.22552,0.267184,0.236626,0.257426,0.416508,0.426576,0.459036,0.416595,0.409127,0.396777,0.557269,0.535007,0.590076,0.585844,0.568131,0.554986,0.457562,0.462704,0.49947,0.45014,0.37201,0.428521,0.304604,0.244125,0.294067,0.206718,0.372457,0.394604,0.394449,0.404254,0.459898,0.677242,0.811424,0.889528,1.130386,1.285214,1.652374,1.839337,1.9485,1.940691,1.816102,1.727315,1.551227,1.211925,1.133415,0.745919,0.360933,-0.128518,-0.394218,-0.436601,-0.506477,-0.455147,-0.457866,-0.545299,-0.506097,-0.376529,-0.457804,-0.49546,-0.458693,-0.332811,-0.410334,-0.406518,-0.337232,-0.386479,-0.08258,0.220316,0.594978,0.581779,0.684406,0.911651,0.979483,1.053458,0.974787,1.110407,1.288165,-0.823386,1
0.446769,-1.507397,-3.187468,-4.507462,-4.604201,-3.636115,-2.311604,-1.597727,-1.36245,-0.669216,-0.173393,-0.205116,-0.230787,-0.177121,-0.23851,-0.205079,-0.230544,-0.209159,-0.29294,-0.255069,-0.25399,-0.35198,-0.427739,-0.465948,-0.460286,-0.475062,-0.449746,-0.56228,-0.532781,-0.635797,-0.636588,-0.749548,-0.806785,-0.696292,-0.855282,-0.896255,-0.905672,-0.908456,-0.830084,-0.838837,-0.692125,-0.645769,-0.488872,-0.406459,-0.356379,-0.226578,-0.205745,-0.071802,-0.066372,0.007502,0.030632,0.02097,0.033968,0.16489,0.083024,0.045059,-0.004767,0.123816,0.108044,0.073936,0.112569,0.055673,0.123751,0.220325,0.234111,0.322792,0.215138,0.338967,0.334785,0.328084,0.512283,0.498768,0.602774,0.653275,0.680932,0.728414,0.680483,0.640504,0.620502,0.658008,0.713632,0.621672,0.488162,0.455283,0.424584,0.50447,0.428133,0.450838,0.44836,0.389913,0.391585,0.34957,0.414673,0.472314,0.564531,0.735093,0.799751,1.125994,1.16413,1.281848,1.552735,1.691636,1.88281,1.760313,1.82587,1.619333,1.394902,1.132789,0.928352,0.598844,0.229243,-0.144708,-0.270069,-0.323193,-0.349598,-0.298163,-0.251843,-0.291941,-0.413346,-0.307455,-0.330825,-0.432389,-0.289935,-0.324933,-0.309288,-0.252567,-0.282586,-0.169345,0.258729,0.896627,1.088203,1.001306,1.292059,1.378667,1.014765,0.820793,1.034388,1.258433,0.961215,-0.999476,1
0.087631,-1.75349,-3.304473,-4.704657,-4.686415,-3.611817,-2.267268,-1.570893,-1.41779,-0.500788,-0.225177,-0.308834,-0.214733,-0.214509,-0.223121,-0.262336,-0.211816,-0.299099,-0.259956,-0.31611,-0.258668,-0.287147,-0.366855,-0.30598,-0.416708,-0.402303,-0.381554,-0.519897,-0.520952,-0.596919,-0.6507,-0.679636,-0.751527,-0.725224,-0.830701,-0.807317,-0.848388,-0.744554,-0.699973,-0.754353,-0.621918,-0.533942,-0.396596,-0.22089,-0.179316,-0.00948,-0.024018,0.04146,0.094493,0.083212,0.099031,0.045914,0.109519,0.168162,0.263469,0.136101,0.158838,0.089803,0.146604,0.196769,0.268983,0.237263,0.186356,0.241417,0.278426,0.383156,0.389577,0.393549,0.577386,0.587749,0.581883,0.544917,0.657885,0.601777,0.642734,0.699062,0.68011,0.69864,0.716175,0.668626,0.671827,0.575045,0.529212,0.543338,0.603281,0.554714,0.56362,0.489034,0.44695,0.456432,0.393252,0.441439,0.447389,0.274055,0.364609,0.401219,0.44789,0.547809,0.64209,0.788328,0.749801,0.820852,0.96416,1.061884,1.34086,1.137808,0.864013,0.68398,0.628424,0.501134,0.491292,0.461937,0.329812,0.120415,-0.141968,-0.195177,-0.102652,-0.076308,-0.116511,-0.191686,-0.234292,-0.161127,-0.145363,-0.212182,-0.135684,-0.13344,-0.170077,-0.035914,0.332243,1.063251,1.575754,1.709046,2.142926,2.393528,1.92555,1.027624,0.573453,0.192971,-0.648683,-2.441068,1
-0.832281,-1.700368,-2.257301,-2.853671,-2.853301,-2.701487,-2.285726,-1.555512,-1.266622,-1.085957,-0.694641,-0.588517,-0.662469,-0.768004,-0.772551,-0.621054,-0.614187,-0.630124,-0.669577,-0.684154,-0.692942,-0.611302,-0.647007,-0.621362,-0.641071,-0.65907,-0.620977,-0.674921,-0.664164,-0.736943,-0.769237,-0.699657,-0.800302,-0.727423,-0.750435,-0.789065,-0.732957,-0.765487,-0.697089,-0.767281,-0.716417,-0.645843,-0.573178,-0.560256,-0.616434,-0.614316,-0.551939,-0.40994,-0.46597,-0.428364,-0.422839,-0.371389,-0.394724,-0.422018,-0.354855,-0.408413,-0.425342,-0.387021,-0.409996,-0.427261,-0.386903,-0.372272,-0.388014,-0.320932,-0.361698,-0.304216,-0.220826,-0.265227,-0.253163,-0.176786,-0.180337,-0.135434,-0.102187,-0.069772,-0.012026,0.019393,0.00235,0.025685,0.1062,0.060628,0.141005,0.098627,0.10026,0.124969,0.131513,0.15842,0.101961,0.169026,0.198306,0.165139,0.197859,0.119464,0.244109,0.360003,0.465326,0.50421,0.556118,0.687189,0.822998,0.923512,1.076936,1.158648,1.155889,1.137692,1.021759,0.918581,0.831133,0.680506,0.540296,0.463925,0.135769,0.040806,0.055551,0.018918,0.148973,0.395338,0.779733,0.941393,1.000765,0.98593,0.973722,1.034479,1.062265,1.060978,1.116197,1.224351,1.42124,1.644654,2.007181,2.118599,2.028304,2.110504,2.203668,2.227544,2.171733,2.045938,2.126372,2.126852,1.679299,0.965814,1
0.08443,-3.190307,-4.686175,-4.559483,-4.087972,-2.618859,-1.76059,-1.592964,-0.569117,-0.1304,-0.173705,-0.154541,-0.110021,-0.099079,-0.127502,-0.155639,-0.166135,-0.18039,-0.118643,-0.148533,-0.220848,-0.213297,-0.300263,-0.340722,-0.41812,-0.511382,-0.513008,-0.60834,-0.692746,-0.73708,-0.769177,-0.712787,-0.834248,-0.813268,-0.891173,-0.884612,-0.794741,-0.802783,-0.804243,-0.764841,-0.720568,-0.616155,-0.528703,-0.358007,-0.294603,-0.24713,-0.185587,-0.161212,-0.150453,-0.057265,-0.007122,0.01818,0.045173,0.086901,0.025783,0.082908,0.067584,0.134552,0.250977,0.224037,0.211741,0.145283,0.24037,0.271448,0.197094,0.358528,0.451317,0.406182,0.548282,0.518691,0.557565,0.616201,0.553132,0.591173,0.6109,0.533638,0.513538,0.615632,0.470984,0.452317,0.421644,0.482082,0.371539,0.38605,0.395894,0.381883,0.326366,0.346291,0.228609,0.273395,0.323813,0.231354,0.243411,0.300259,0.235705,0.216894,0.266469,0.286612,0.551972,0.743665,1.120981,1.256529,1.350605,1.503046,1.905061,1.977696,1.731065,1.680009,1.457278,1.304503,1.144509,0.753966,0.339538,-0.116375,-0.295373,-0.244836,-0.326821,-0.215118,-0.342009,-0.416639,-0.27606,-0.260737,-0.234165,-0.21292,-0.190004,-0.198542,-0.142296,-0.082819,-0.073202,0.005963,0.467165,1.152279,1.271808,1.190796,1.180738,1.058195,0.982577,0.873772,1.626707,-0.020783,1
-0.007819,-2.336757,-3.527643,-4.326244,-3.890414,-2.946001,-1.922457,-1.670539,-1.303111,-0.29908,-0.273668,-0.279282,-0.285512,-0.2892,-0.292632,-0.397609,-0.40128,-0.446108,-0.463264,-0.396171,-0.315964,-0.370366,-0.527149,-0.581977,-0.624493,-0.552784,-0.622933,-0.68911,-0.65794,-0.761407,-0.730419,-0.765168,-0.855979,-1.009054,-1.060661,-1.067175,-1.090252,-1.090939,-1.066902,-1.082863,-1.082186,-0.986746,-0.936894,-0.819037,-0.68585,-0.624582,-0.490293,-0.426007,-0.360349,-0.208074,-0.125087,-0.18818,-0.118139,-0.113558,-0.14617,-0.091184,-0.046443,-0.004155,0.006803,0.009933,-0.019665,-0.040474,0.052611,0.026298,0.023167,0.115115,0.156579,0.199554,0.171439,0.225854,0.316083,0.379237,0.37006,0.411754,0.461977,0.543203,0.5488,0.482508,0.573144,0.528365,0.519341,0.476189,0.465932,0.43017,0.454405,0.43138,0.411592,0.450233,0.42073,0.35379,0.426031,0.383209,0.360463,0.393385,0.38357,0.356615,0.519772,0.554659,0.610167,0.730424,0.955373,1.137476,1.244285,1.498764,1.653385,1.716396,1.693752,1.615058,1.620459,1.420586,1.175899,0.918631,0.576237,0.266964,0.077792,0.050025,0.12545,0.21135,0.155323,0.156556,0.10463,0.166968,0.196856,0.241869,0.215106,0.20138,0.257102,0.227497,0.398454,0.810578,1.542258,1.526739,1.426058,1.589126,1.564845,1.334712,1.165209,0.954434,1.470211,0.393063,1
-1.074302,-3.2594,-4.125979,-4.342446,-3.922558,-3.190156,-1.946061,-1.554774,-1.296352,-0.565004,-0.105771,-0.118133,-0.163299,-0.166158,-0.1478,-0.137483,-0.103185,-0.132644,-0.09715,-0.088237,-0.212941,-0.234699,-0.281812,-0.289539,-0.32886,-0.379072,-0.456022,-0.396158,-0.442005,-0.458914,-0.520025,-0.582366,-0.633316,-0.709674,-0.64087,-0.641523,-0.635681,-0.529592,-0.527815,-0.451505,-0.396321,-0.402673,-0.295588,-0.221514,-0.136922,-0.038955,-0.016756,0.12404,0.21481,0.211776,0.283443,0.18403,0.141596,0.155233,0.223381,0.145429,0.141927,0.15251,0.178362,0.133761,0.21736,0.219375,0.173382,0.228797,0.239784,0.29736,0.302624,0.388943,0.427773,0.440513,0.473158,0.53078,0.52586,0.5517,0.61347,0.650243,0.54995,0.581894,0.555313,0.471959,0.487556,0.496235,0.464398,0.406337,0.378184,0.374184,0.392174,0.350569,0.402873,0.388015,0.255285,0.288716,0.355338,0.407291,0.582482,0.550115,0.737914,0.937788,1.153718,1.4648,1.835853,2.156895,2.16781,2.066588,1.817137,1.665793,1.401904,1.125686,0.645392,0.277675,-0.15344,-0.387747,-0.447508,-0.475121,-0.466107,-0.466732,-0.50942,-0.555149,-0.470782,-0.470065,-0.478745,-0.441309,-0.423884,-0.465502,-0.429167,-0.313641,-0.358873,-0.22405,0.161573,0.777362,0.856515,0.931064,1.129242,1.02355,0.767713,0.613426,0.696247,1.176666,1.131633,-1.094973,1
4.058127,2.087844,0.423115,-2.058869,-3.237691,-4.526753,-3.836157,-1.975006,-0.783353,-0.381038,0.899432,1.506746,1.174864,1.234696,1.173663,1.220814,1.261173,1.290871,1.285858,1.137852,0.903268,0.968999,0.898329,0.725896,0.750989,0.650912,0.505333,0.399656,0.228064,0.371471,0.052599,0.016931,-0.291661,-0.179939,-0.285755,-0.524063,-0.547795,-0.562319,-0.591535,-0.799443,-0.712043,-0.641386,-0.65578,-0.518774,-0.409175,-0.412039,-0.213074,0.029181,0.111807,0.056618,0.260372,0.163032,0.09261,0.007947,0.068281,0.218749,0.328335,0.363643,0.216745,0.180379,0.20338,0.0403,0.270221,0.152528,0.208296,0.328718,0.100043,0.340499,0.273339,0.392247,0.379205,0.471542,0.424771,0.424501,0.595289,0.474495,0.626329,0.500171,0.494722,0.424613,0.50887,0.441815,0.36926,0.282376,0.277238,0.260458,-0.000478,-0.027998,-0.215472,0.049414,0.004614,-0.20377,-0.246654,-0.346425,-0.088971,-0.426688,-0.378175,-0.223283,-0.340463,-0.467562,-0.269193,-0.260933,-0.328236,-0.267779,-0.410867,-0.010633,0.469535,1.031043,0.94632,0.799696,0.470506,0.374717,0.122589,0.238832,0.341208,-0.117774,-0.558297,-1.102588,-1.25629,-1.182277,-1.210751,-0.973118,-1.200976,-1.271705,-1.174943,-1.078734,-1.060646,-1.279274,-1.185413,-0.995473,-0.890166,-0.104009,1.504644,1.392034,1.331141,1.197531,1.092861,-0.129327,-1.038259,-1.489863,1
-0.761603,-2.921243,-3.894315,-4.384961,-4.068225,-3.511104,-2.532815,-1.687396,-1.398099,-0.899288,-0.537667,-0.481976,-0.53338,-0.52247,-0.49308,-0.530517,-0.447796,-0.464596,-0.385064,-0.489428,-0.424921,-0.4413,-0.375398,-0.452287,-0.406726,-0.419768,-0.479851,-0.45911,-0.456832,-0.480105,-0.587799,-0.57426,-0.554247,-0.620518,-0.594818,-0.612613,-0.647665,-0.560238,-0.637406,-0.634608,-0.518519,-0.503972,-0.361891,-0.299049,-0.267179,-0.194193,-0.192402,-0.071317,-0.053524,-0.029567,0.047021,0.004021,0.055047,0.043361,0.023563,0.019543,0.013656,0.084049,0.090896,0.122233,0.16285,0.082302,0.236619,0.183653,0.189777,0.209497,0.209355,0.203156,0.331781,0.322409,0.386385,0.408661,0.389297,0.530455,0.545184,0.583898,0.63601,0.697196,0.587564,0.649018,0.638392,0.596042,0.557779,0.541281,0.559017,0.537769,0.520527,0.443658,0.544936,0.522312,0.507689,0.493694,0.4864,0.471713,0.502205,0.686024,0.813363,0.925775,1.030028,1.104434,1.385668,1.581214,1.717317,1.70441,1.670523,1.592412,1.433108,1.246146,1.047874,0.802759,0.503582,0.318966,-0.012007,-0.042841,-0.107709,-0.161003,-0.203581,-0.144376,-0.14597,-0.204865,-0.164714,-0.179715,-0.179078,-0.158224,-0.122701,-0.109968,-0.084733,-0.047362,0.217571,0.582976,1.000915,1.0731,1.242501,1.449587,1.37975,1.068117,0.746061,0.849046,1.162112,-0.381257,1
-0.1865,-2.682488,-4.016882,-4.218122,-3.841665,-2.994059,-1.97394,-1.639707,-1.291207,-0.566769,-0.327971,-0.358813,-0.367477,-0.261719,-0.431125,-0.441794,-0.35335,-0.376001,-0.364623,-0.386635,-0.417326,-0.464163,-0.462748,-0.54337,-0.54589,-0.545954,-0.595124,-0.692631,-0.699237,-0.716621,-0.661129,-0.7679,-0.813524,-0.873415,-0.956052,-0.872028,-0.876193,-0.810705,-0.790117,-0.715943,-0.59079,-0.534814,-0.476713,-0.371841,-0.246373,-0.130949,-0.120535,0.014479,0.011072,0.002275,0.116529,0.084694,0.128325,0.160158,0.101186,0.144208,0.136362,0.163886,0.206745,0.299805,0.308966,0.306777,0.346396,0.313978,0.385967,0.513182,0.458981,0.566555,0.581071,0.582957,0.691838,0.679189,0.6728,0.670368,0.682762,0.644019,0.605619,0.700293,0.644548,0.516773,0.595146,0.685098,0.573466,0.529727,0.521426,0.53107,0.388489,0.48497,0.38671,0.37442,0.437446,0.344102,0.372189,0.376467,0.314802,0.362713,0.594566,0.757877,0.919045,1.112733,1.278646,1.3747,1.706535,1.895684,1.872783,1.772166,1.696705,1.385626,1.232868,0.950537,0.579277,0.295957,-0.201785,-0.303482,-0.387623,-0.367,-0.374805,-0.47913,-0.383225,-0.393088,-0.464799,-0.413476,-0.409459,-0.468143,-0.414109,-0.377154,-0.335619,-0.36525,-0.139306,0.145682,0.808746,0.781289,0.725187,1.068264,1.129702,0.940981,1.008044,1.564257,2.151476,0.180054,1
0.803939,-1.10691,-2.854107,-3.898687,-4.153132,-3.997156,-3.290888,-2.189364,-1.582271,-1.419742,-0.776238,-0.364668,-0.351319,-0.282098,-0.328095,-0.244455,-0.272043,-0.252956,-0.216983,-0.298216,-0.309008,-0.317757,-0.376359,-0.409695,-0.378963,-0.432168,-0.472562,-0.45052,-0.471939,-0.508322,-0.636121,-0.576138,-0.64786,-0.654718,-0.661894,-0.646066,-0.575127,-0.581499,-0.561275,-0.568309,-0.454944,-0.438918,-0.324154,-0.216978,-0.221412,-0.147776,-0.06339,0.022359,-0.053923,0.036559,0.062545,0.0129,0.170919,0.023649,-0.000901,0.046446,0.068937,0.022108,0.094245,0.085704,0.163069,0.164182,0.136527,0.18954,0.244752,0.343208,0.255818,0.310112,0.39335,0.340457,0.472964,0.556019,0.630413,0.602287,0.533156,0.5967,0.761513,0.605446,0.733874,0.698515,0.679351,0.614387,0.597442,0.544878,0.525201,0.523174,0.484865,0.490532,0.453098,0.375018,0.371008,0.480051,0.425305,0.508814,0.688477,0.835581,0.980215,1.170598,1.324091,1.585613,1.716115,1.934146,1.940437,1.856597,1.797955,1.611886,1.432476,1.116787,0.868552,0.483895,0.109589,-0.12714,-0.318159,-0.390457,-0.237127,-0.33024,-0.364112,-0.392366,-0.402639,-0.358643,-0.421136,-0.32743,-0.387671,-0.478923,-0.427384,-0.337681,-0.277416,-0.249179,0.126908,0.757403,0.853813,0.879433,1.026522,1.074677,0.846941,0.57369,0.857986,1.202416,0.613242,-1.655647,1
-0.920213,-2.44951,-3.192028,-3.875163,-4.180723,-3.892177,-3.156228,-2.022569,-1.520139,-1.170222,-0.591721,-0.396476,-0.410053,-0.441876,-0.417329,-0.423058,-0.31273,-0.304144,-0.303525,-0.344845,-0.321497,-0.224513,-0.35551,-0.243033,-0.311067,-0.394346,-0.34915,-0.33717,-0.425003,-0.339871,-0.315678,-0.374989,-0.374635,-0.467194,-0.389713,-0.337628,-0.425685,-0.252573,-0.346354,-0.227804,-0.181902,-0.170133,-0.075184,-0.055118,0.057978,-0.030612,0.09354,0.106509,0.182565,0.173408,0.152748,0.179275,0.121033,0.169488,0.108722,0.166376,0.144904,0.204994,0.192134,0.110828,0.167035,0.141038,0.170803,0.222935,0.26776,0.318077,0.266403,0.329306,0.372842,0.361889,0.425142,0.533659,0.414622,0.533912,0.51905,0.538863,0.592498,0.533106,0.540394,0.64967,0.615208,0.524593,0.467952,0.522661,0.533844,0.502744,0.499622,0.386475,0.386328,0.495033,0.427997,0.407115,0.475286,0.49998,0.69165,0.845662,1.055376,1.193646,1.277205,1.466307,1.667401,1.915601,1.928055,1.863985,1.867069,1.694086,1.47547,1.319656,1.065675,0.897666,0.677125,0.247144,0.049677,-0.086539,-0.134905,-0.173086,-0.170887,-0.108098,-0.169253,-0.150742,-0.098641,-0.095394,-0.173346,-0.179341,-0.20346,-0.160222,-0.11142,-0.033919,0.27296,0.809066,1.430289,1.346675,0.998193,0.234542,-0.624934,-1.1341,-1.263556,-0.964272,-0.370832,-1.040489,1
2.744603,-0.101924,-2.851681,-3.974909,-3.995437,-3.719663,-2.68097,-1.441639,-1.166864,-0.657178,0.19803,0.325609,0.248024,0.214105,0.231235,0.156027,0.182609,-0.017427,0.080069,0.173518,-0.005452,0.088092,-0.060667,-0.061424,-0.238601,-0.113704,-0.209385,-0.281777,-0.225441,-0.400036,-0.348526,-0.548066,-0.630139,-0.595657,-0.670864,-0.660443,-0.679357,-0.555307,-0.616194,-0.622447,-0.466463,-0.447551,-0.422129,-0.425268,-0.266154,-0.109791,-0.090908,0.040708,-0.015154,0.098672,0.156022,0.09899,0.107493,0.110132,0.131555,0.170845,0.195662,0.199832,0.210167,0.234893,0.202176,0.26879,0.264293,0.279064,0.385695,0.348771,0.38673,0.40572,0.408132,0.509265,0.441363,0.589799,0.591758,0.566744,0.562124,0.44679,0.533175,0.482171,0.456385,0.417384,0.414481,0.401348,0.309656,0.287353,0.254435,0.246271,0.194338,0.124714,0.202985,0.111323,0.193169,0.101616,0.129201,0.217615,0.283613,0.41858,0.589011,0.839147,1.047547,1.278815,1.588941,1.912487,2.155001,1.932524,1.787373,1.716054,1.362374,1.070144,0.680761,0.401395,0.092854,-0.485156,-0.765191,-0.817846,-0.818844,-0.752102,-0.848165,-0.890435,-0.82549,-0.788015,-0.968546,-0.882862,-0.779596,-0.915873,-0.960623,-0.873701,-0.903148,-0.820852,-0.493856,0.21114,0.503609,0.451441,0.802779,0.883922,0.89532,0.840126,1.305181,2.114687,1.59027,-1.921928,1
2.402869,2.036719,0.340902,-1.286436,-3.301455,-4.224569,-3.398307,-2.079302,-1.597905,-1.527974,-0.075556,0.150184,-0.018965,0.156633,0.083514,0.054506,0.063978,-0.010487,-0.074014,-0.108975,-0.026492,-0.237566,-0.21215,-0.277128,-0.379033,-0.322544,-0.487135,-0.650773,-0.705348,-0.706645,-0.925901,-0.86621,-0.998414,-1.126847,-1.352241,-1.40656,-1.355502,-1.457718,-1.499718,-1.585,-1.467946,-1.372172,-1.373099,-1.258907,-1.088985,-0.922813,-0.917312,-0.649884,-0.573605,-0.358385,-0.368699,-0.322182,-0.234772,-0.381683,-0.225512,-0.156888,-0.109898,-0.045662,0.057008,-0.004405,0.245356,0.086985,0.115446,0.227583,0.202571,0.266719,0.140887,0.373032,0.454464,0.425253,0.608881,0.405954,0.565306,0.511189,0.606846,0.54951,0.509745,0.787279,0.615151,0.537544,0.588582,0.583571,0.575338,0.479062,0.514438,0.580015,0.469473,0.387148,0.429244,0.466016,0.406437,0.322989,0.204901,0.172746,0.363592,0.193902,0.18451,0.181373,0.259966,0.241934,0.428265,0.230329,0.118469,0.177317,0.44047,0.442249,0.635618,1.107654,1.445799,1.409298,1.187845,1.143406,0.89119,0.718105,0.904521,0.839954,0.49347,0.125049,-0.309023,-0.327155,-0.269805,-0.210658,-0.229936,-0.224102,-0.215921,-0.231219,-0.101721,-0.129296,0.007368,-0.034076,0.118138,0.416087,1.114983,0.899164,1.154525,1.987328,2.428732,2.613987,1.962819,1.769198,1
-1.362263,-3.353023,-3.975657,-4.228226,-3.799673,-3.218119,-2.049291,-1.529672,-1.297454,-0.83059,-0.424365,-0.472035,-0.515169,-0.402587,-0.439844,-0.408055,-0.34323,-0.386262,-0.448598,-0.444788,-0.461365,-0.357655,-0.45115,-0.453083,-0.412277,-0.451073,-0.390358,-0.464978,-0.456654,-0.617934,-0.625505,-0.598444,-0.676729,-0.660209,-0.650555,-0.626487,-0.576308,-0.613951,-0.540162,-0.478884,-0.486264,-0.435745,-0.40404,-0.292833,-0.17228,-0.055059,-0.039811,-0.021251,0.021226,0.032142,0.005519,0.078737,0.057119,-0.011384,0.062649,0.018703,0.06669,0.036431,0.067354,0.115262,0.04202,0.126113,0.031845,-0.005034,0.259149,0.191446,0.288828,0.208862,0.279875,0.281618,0.304074,0.36857,0.368529,0.484247,0.451953,0.536524,0.449513,0.508908,0.597903,0.65802,0.617762,0.62313,0.612907,0.560662,0.56296,0.553077,0.500828,0.539185,0.416864,0.504964,0.489947,0.512857,0.551138,0.606176,0.714427,0.842356,0.993789,1.109917,1.148313,1.37542,1.610972,1.743071,1.789536,1.654578,1.575817,1.434389,1.374899,1.063426,0.869591,0.585868,0.260282,0.137454,0.034019,-0.019213,0.026099,-0.078532,-0.065535,-0.000061,-0.000704,-0.109445,-0.082694,-0.072762,-0.025459,0.018728,0.001772,0.054476,0.010279,0.237253,0.760553,1.064346,1.120528,1.309826,1.468151,1.26784,0.872409,0.638555,0.91927,0.716147,-0.351222,-2.234651,1
1.935414,-0.548762,-2.343393,-3.3786,-4.243416,-4.108213,-3.044811,-1.665615,-1.428169,-1.02009,-0.119586,0.196453,0.11236,0.136799,0.183115,0.114823,0.13971,0.064161,-0.076425,0.119648,0.047738,-0.088085,-0.167478,-0.087829,-0.228992,-0.198306,-0.216732,-0.292717,-0.377324,-0.458148,-0.580242,-0.597948,-0.557755,-0.679274,-0.714765,-0.656719,-0.749162,-0.741451,-0.77262,-0.79419,-0.620487,-0.522796,-0.381846,-0.425288,-0.462774,-0.297623,-0.149372,-0.089397,-0.067538,-0.035564,0.012313,0.007929,0.046253,-0.001573,0.170674,0.148178,0.153269,0.133719,0.079182,0.236187,0.187353,0.195352,0.257641,0.19105,0.213278,0.236972,0.321883,0.300567,0.346752,0.380949,0.426782,0.542051,0.522278,0.325994,0.371824,0.394982,0.426731,0.422513,0.408115,0.482732,0.339244,0.250996,0.318715,0.329994,0.437662,0.280295,0.366357,0.200823,0.250168,0.206049,0.237207,0.253283,0.110641,0.160593,0.188401,0.296552,0.646336,0.79986,1.073866,1.087598,1.28577,1.500641,1.809944,2.242933,2.141685,1.98998,1.783831,1.700046,1.459999,1.105735,0.866171,0.156709,-0.371634,-0.517175,-0.57012,-0.711424,-0.647483,-0.80954,-0.753439,-0.768748,-0.759395,-0.754459,-0.68913,-0.744114,-0.722098,-0.771885,-0.719775,-0.70657,-0.560079,-0.166987,0.371002,0.548418,0.93739,1.224868,1.2934,1.183672,1.094121,1.588092,1.871106,-1.248746,1
-1.862747,-3.203633,-3.634153,-4.169374,-3.888081,-3.27584,-2.10043,-1.662302,-1.439748,-0.752662,-0.445494,-0.454133,-0.476139,-0.505507,-0.491585,-0.343665,-0.409144,-0.421999,-0.441259,-0.519489,-0.339201,-0.377334,-0.354248,-0.356699,-0.496767,-0.494096,-0.366784,-0.362539,-0.441967,-0.326855,-0.341944,-0.377594,-0.402214,-0.340106,-0.414406,-0.319692,-0.274341,-0.355933,-0.273,-0.206263,-0.15638,-0.143525,-0.1183,-0.234903,-0.103155,-0.008783,0.049864,-0.028025,0.034272,0.057321,-0.016122,-0.002088,0.000595,-0.003826,0.046449,-0.005524,-0.010946,0.017766,-0.002008,-0.081316,-0.014966,-0.023965,-0.012726,-0.029349,0.086248,0.065663,-0.058436,0.163844,0.277922,0.174096,0.193894,0.278121,0.387326,0.417185,0.383858,0.486252,0.486414,0.495366,0.584428,0.625542,0.661851,0.683648,0.680908,0.594284,0.537228,0.569685,0.577397,0.531796,0.594631,0.620714,0.51427,0.470371,0.49686,0.581126,0.530719,0.814765,1.011402,1.083627,1.334455,1.414744,1.672368,1.97192,2.129693,2.180532,2.075971,1.888625,1.729752,1.453563,1.336297,1.041477,0.884001,0.585792,0.119285,0.050663,-0.04487,-0.090907,-0.04391,0.05194,-0.22552,-0.198407,-0.04249,-0.116824,-0.122705,-0.215508,-0.116331,-0.096285,-0.013903,0.095775,0.217629,0.755418,1.269053,1.232822,0.902701,0.376003,-0.318281,-0.675934,-0.849122,-0.781167,-0.302293,-0.610023,1
-0.998572,-2.889725,-3.387779,-3.510639,-2.996896,-2.280412,-1.700196,-1.561107,-1.094827,-0.922351,-0.937855,-0.878483,-0.882964,-0.881929,-0.908668,-0.823079,-0.859343,-0.88218,-0.873912,-0.880445,-0.808956,-0.886833,-0.926023,-0.901808,-0.92022,-0.925355,-0.883318,-0.931709,-0.993675,-0.911652,-0.960743,-0.993475,-1.040957,-1.073988,-1.008234,-1.006194,-1.030482,-0.959067,-0.890635,-0.878149,-0.77508,-0.687035,-0.664759,-0.595301,-0.509098,-0.426264,-0.443556,-0.394542,-0.416835,-0.382827,-0.280688,-0.289252,-0.259982,-0.271506,-0.247585,-0.157269,-0.230023,-0.13092,-0.150924,-0.112275,-0.066531,-0.068022,-0.025683,-0.064317,0.073705,0.082571,0.067146,0.158327,0.209891,0.22256,0.283716,0.268659,0.24374,0.333585,0.360231,0.427496,0.414369,0.391898,0.404062,0.49268,0.453481,0.404181,0.516811,0.458859,0.469722,0.475,0.469266,0.451312,0.50014,0.520436,0.49296,0.530829,0.561053,0.551173,0.651785,0.64181,0.735819,0.87732,0.975272,1.043511,1.171809,1.310503,1.379261,1.40751,1.406604,1.366252,1.234797,1.229052,1.140846,1.029356,0.869436,0.707503,0.626421,0.573511,0.573777,0.562189,0.595701,0.585561,0.64277,0.637871,0.581508,0.62787,0.637062,0.660311,0.733671,0.741977,0.738463,0.895106,1.145668,1.381639,1.420303,1.337189,1.393642,1.373306,1.312156,1.246369,1.430496,1.635093,1.520962,0.654211,1
-0.288341,-2.272545,-3.666071,-4.282737,-3.724241,-2.843228,-1.874917,-1.531251,-1.194388,-0.541274,-0.393031,-0.43113,-0.382494,-0.385527,-0.397813,-0.380008,-0.449659,-0.382912,-0.405283,-0.446552,-0.418012,-0.522427,-0.586606,-0.541891,-0.528035,-0.630458,-0.677739,-0.782508,-0.756995,-0.806572,-0.81541,-0.94057,-0.92873,-0.850048,-1.048344,-1.057146,-0.998914,-0.849626,-0.819301,-0.949592,-0.734036,-0.693349,-0.693719,-0.574941,-0.520241,-0.374742,-0.271945,-0.230457,-0.162325,-0.123115,-0.127811,-0.038098,0.025012,0.027464,-0.033557,-0.063766,0.019662,0.003609,0.074925,0.059023,0.054364,0.055623,0.192149,0.184913,0.19466,0.242654,0.196344,0.256156,0.293416,0.35689,0.37953,0.364163,0.441005,0.515299,0.546059,0.583956,0.568255,0.567238,0.52694,0.455243,0.552703,0.540038,0.418419,0.434644,0.383029,0.475676,0.554525,0.443387,0.446785,0.333474,0.30718,0.421234,0.376689,0.448191,0.590497,0.593619,0.731644,0.92259,1.050671,1.149473,1.385669,1.585264,2.006357,1.839593,1.744151,1.660667,1.439003,1.344996,1.207894,0.959119,0.572489,0.285021,0.019181,-0.16476,-0.171501,-0.210641,-0.191016,-0.194502,-0.22492,-0.08166,-0.147595,-0.196352,-0.277333,-0.189883,-0.13429,-0.262444,-0.197281,-0.080189,0.092409,0.658752,1.147433,1.16232,1.211766,1.52633,1.770573,1.615654,1.293295,1.243131,1.722784,1.295924,1
0.539743,0.665778,-1.275587,-2.846672,-3.49992,-4.382826,-3.96066,-2.657129,-1.928326,-1.60575,-0.498024,-0.159591,-0.262294,-0.215807,-0.358057,-0.122679,-0.195918,-0.23573,-0.258877,-0.285343,-0.272243,-0.208648,-0.358901,-0.336535,-0.308334,-0.47299,-0.461036,-0.677957,-0.556902,-0.631488,-0.647322,-0.626867,-0.747585,-0.817917,-0.878501,-1.007237,-0.888863,-0.918758,-0.883803,-0.916144,-0.785743,-0.742825,-0.778727,-0.527389,-0.450696,-0.337256,-0.448363,-0.202231,-0.052745,0.050061,0.031233,0.019031,0.077312,0.152754,0.224071,0.182853,0.174021,0.213171,0.196622,0.303866,0.327173,0.249455,0.352151,0.284543,0.414823,0.363795,0.370917,0.441688,0.529347,0.514792,0.595394,0.6162,0.622723,0.67989,0.697802,0.66439,0.603763,0.581327,0.543699,0.607982,0.575003,0.581865,0.453299,0.548752,0.460084,0.403775,0.436687,0.303198,0.52221,0.420116,0.404391,0.426069,0.322999,0.382527,0.374886,0.24601,0.370314,0.336457,0.319237,0.287397,0.440564,0.560536,0.672592,0.983084,1.250987,1.232123,1.603798,2.019247,2.368936,2.421742,2.324955,2.054016,1.748441,1.469141,0.954813,0.255514,-0.256782,-0.31246,-0.463075,-0.358104,-0.361928,-0.319744,-0.428451,-0.291015,-0.416594,-0.454043,-0.371639,-0.368918,-0.29578,-0.469455,-0.32956,-0.235129,0.574732,1.058608,0.886634,1.265848,0.895777,-0.01588,-0.705283,0.037302,1
-1.181294,-2.303042,-2.869072,-3.947713,-4.501726,-4.172636,-2.863319,-1.892526,-1.661895,-0.901854,-0.422962,-0.352169,-0.319623,-0.362453,-0.321471,-0.316018,-0.3024,-0.292789,-0.31629,-0.374016,-0.408765,-0.377562,-0.458786,-0.329726,-0.350429,-0.390571,-0.376615,-0.493497,-0.532176,-0.520836,-0.52684,-0.588275,-0.708192,-0.582914,-0.670499,-0.696528,-0.600663,-0.660011,-0.558976,-0.509643,-0.480792,-0.439535,-0.231695,-0.274869,-0.135803,-0.045989,-0.03775,-0.024957,0.041773,0.094939,0.036344,0.079784,-0.010793,-0.020771,0.062472,0.052275,0.034358,0.076344,0.110361,0.159025,0.155189,0.08453,0.146215,0.188935,0.172806,0.227565,0.343366,0.35085,0.375324,0.507683,0.520782,0.50579,0.62816,0.600653,0.611506,0.761582,0.727908,0.710322,0.725447,0.724286,0.699504,0.631379,0.654403,0.643155,0.552395,0.553954,0.499729,0.488318,0.544644,0.468068,0.456898,0.348369,0.39455,0.378383,0.449113,0.449132,0.471193,0.602839,0.728051,0.957451,0.982083,1.194129,1.325655,1.559703,1.818272,1.778544,1.772348,1.486249,1.291106,1.154314,0.945503,0.704451,0.371194,0.122738,-0.163432,-0.236027,-0.258844,-0.219343,-0.236236,-0.269631,-0.270911,-0.24566,-0.246864,-0.284183,-0.292909,-0.248887,-0.231733,-0.21391,-0.130511,-0.002571,0.527204,1.325166,1.379314,1.543067,1.788521,1.506611,0.774107,-0.130121,-0.285874,-0.451006,1
1.531934,0.920061,-0.490195,-2.013236,-2.834971,-3.485933,-3.261986,-2.310223,-1.704748,-1.678492,-1.024963,-0.463756,-0.405988,-0.473953,-0.54447,-0.540199,-0.382636,-0.525689,-0.526633,-0.48389,-0.529399,-0.607547,-0.536142,-0.559778,-0.630625,-0.644034,-0.719658,-0.746212,-0.801292,-0.831251,-0.936363,-0.993385,-1.041306,-0.990454,-1.015165,-1.142122,-1.095873,-1.134587,-1.225637,-1.234339,-1.032637,-1.061645,-0.968724,-0.891063,-0.897066,-0.699183,-0.569705,-0.486727,-0.434955,-0.445299,-0.331631,-0.401433,-0.255768,-0.29565,-0.18229,-0.262718,-0.207286,-0.141383,-0.230774,-0.270174,-0.116821,-0.066774,-0.085409,-0.075672,-0.106258,-0.056187,-0.056801,0.032968,0.079746,0.066111,0.114301,0.144491,0.200353,0.193166,0.21511,0.192371,0.219737,0.300444,0.353484,0.376579,0.280972,0.29525,0.323235,0.306423,0.195662,0.331849,0.315663,0.229596,0.271069,0.172883,0.232285,0.276666,0.279413,0.254613,0.257101,0.239438,0.255343,0.313464,0.323027,0.548245,0.663513,0.933412,1.11337,1.264951,1.322286,1.54133,1.933896,2.101406,2.107761,1.890662,1.756308,1.480725,1.289795,1.109774,0.793688,0.392408,0.219369,0.157163,0.182838,0.154039,0.18804,0.241564,0.163351,0.16572,0.21379,0.272316,0.297435,0.297611,0.346129,0.372206,0.523702,1.016107,1.279618,1.361462,1.78124,1.977658,2.22604,1.636764,1.850121,1.934538,1
-3.527899,-5.117621,-4.634885,-4.226482,-3.100461,-1.897723,-1.306379,-0.952464,-0.228996,-0.096763,-0.100399,-0.145316,-0.226732,-0.208631,-0.1187,-0.123267,-0.112701,-0.092833,-0.118361,-0.164584,-0.207243,-0.235473,-0.203294,-0.311387,-0.20928,-0.336253,-0.323848,-0.303438,-0.463151,-0.4681,-0.525225,-0.517092,-0.490902,-0.519797,-0.482997,-0.525021,-0.478641,-0.449876,-0.371062,-0.382658,-0.314935,-0.276898,-0.191223,-0.063774,0.010649,0.128294,0.119609,0.056184,0.124026,0.029956,0.125547,0.06879,0.111457,0.132176,0.130284,0.254446,0.145098,0.116107,0.184013,0.170986,0.210932,0.160776,0.193824,0.243731,0.167593,0.235734,0.217087,0.365308,0.404374,0.497261,0.473883,0.499583,0.578455,0.551247,0.530825,0.511263,0.563183,0.492293,0.532,0.390495,0.419958,0.452224,0.467794,0.342652,0.348468,0.364279,0.45477,0.356743,0.259773,0.209377,0.329584,0.356323,0.34213,0.452383,0.380161,0.578385,0.753796,0.94877,1.107294,1.245667,1.441809,1.61852,1.907795,1.756346,1.751461,1.60809,1.509252,1.140091,1.028019,0.763897,0.301821,0.0975,-0.281988,-0.316876,-0.301895,-0.423909,-0.354103,-0.460573,-0.42165,-0.370226,-0.367381,-0.339859,-0.496811,-0.430256,-0.374153,-0.321475,-0.335271,-0.257285,-0.033733,0.35022,0.685109,0.756051,0.967958,0.975465,0.914873,0.640022,0.511706,0.523466,0.80513,-0.912395,1
-0.775867,-3.414141,-4.089704,-4.064567,-4.034012,-3.664548,-2.457875,-1.295452,-1.249805,-0.837882,-0.256902,-0.223768,-0.319442,-0.245783,-0.291141,-0.312414,-0.283635,-0.248176,-0.246722,-0.312936,-0.272328,-0.283802,-0.369831,-0.327253,-0.328026,-0.3559,-0.312062,-0.438615,-0.413953,-0.426744,-0.400468,-0.525179,-0.487441,-0.488947,-0.529396,-0.567113,-0.61573,-0.4567,-0.458633,-0.490729,-0.450919,-0.392836,-0.25425,-0.257616,-0.191821,-0.137859,-0.107027,-0.069024,-0.023093,-0.025411,0.046336,0.022995,-0.046548,-0.039305,-0.094578,-0.012034,-0.085145,-0.060455,0.021065,0.013212,0.055273,-0.002785,0.069091,0.142163,0.095263,0.163413,0.180684,0.192019,0.209375,0.265708,0.313187,0.231535,0.28817,0.371111,0.383026,0.424094,0.377872,0.33522,0.460491,0.407687,0.279946,0.425874,0.437252,0.518384,0.423988,0.351651,0.354842,0.376937,0.285078,0.411164,0.38252,0.282379,0.443198,0.461513,0.619373,0.703728,0.930371,1.16439,1.175886,1.301243,1.595768,1.784423,1.790884,1.710692,1.698594,1.558945,1.367694,1.223756,0.951005,0.617456,0.224322,-0.001857,-0.128586,-0.193965,-0.008425,-0.058991,-0.106418,0.049976,-0.102163,-0.026576,-0.046325,-0.120889,-0.010478,-0.07914,-0.105388,-0.006381,0.053028,0.190526,0.342872,0.865784,1.141917,1.306347,1.465367,1.387017,1.320669,0.882169,0.966231,1.065901,0.440122,-1.980259,1
-0.035942,-0.278196,-0.383754,-0.372725,-0.133223,-0.276988,-0.421731,-0.346887,-0.178489,-0.231673,-0.336583,-0.361853,-0.394728,-0.278694,-0.432826,-0.47155,-0.257782,-0.221215,-0.509885,-0.613222,-0.527286,-0.423109,-0.353296,-0.435838,-0.474659,-0.560816,-0.629841,-0.320002,-0.164771,-0.127169,-0.25424,-0.381677,-0.181038,-0.079147,0.005506,0.174963,0.056962,0.157471,0.191066,0.103662,0.081361,-0.000434,0.083364,0.266578,0.192228,0.068638,-0.039912,-0.010878,0.084594,0.11325,0.315397,0.04852,-0.057954,0.137535,0.280427,0.096707,0.016028,0.082502,0.250142,0.415303,0.516695,0.570083,0.529253,0.621793,0.653847,0.689888,0.66759,0.764224,0.755453,0.610652,0.53165,0.560354,0.488191,0.619816,0.689312,0.518924,0.508618,0.5373,0.83562,1.05043,1.052081,1.042223,1.32396,1.572556,1.836701,2.141114,2.052463,1.974795,1.991537,1.787754,1.390197,1.099906,0.823316,0.693792,0.370162,0.103511,-0.151458,-0.309225,-0.325563,-0.296726,-0.428374,-0.278191,-0.312711,-0.360189,-0.334164,-0.259129,-0.073196,-0.291711,-0.49869,-0.414357,-0.118538,0.332927,0.864387,1.1097,0.888922,0.939338,0.995554,0.806761,0.513157,0.1059,0.476156,0.68152,-0.167258,-1.682937,-2.709764,-3.435517,-4.279618,-4.290016,-3.647598,-2.228411,-1.604603,-1.470359,-0.69271,-0.470497,-0.454146,-0.344076,-0.412128,-0.416749,-0.247379,-0.346285,1
-1.313228,-1.962883,-0.846263,-1.400554,-1.368215,-1.625981,-1.346762,-0.970696,-0.2991,-0.015791,0.287596,0.440261,0.514038,0.800935,0.870918,0.921397,1.011081,1.045232,1.183258,1.209748,1.311628,1.376064,1.393931,1.332499,1.541281,1.579417,1.516199,1.582941,1.538083,1.6238,1.625249,1.542131,1.541969,1.507305,1.409213,1.295018,1.116537,1.059225,1.062486,0.937773,0.669718,0.500583,0.501055,0.476315,0.467034,0.46638,0.367596,0.400849,0.391121,0.481439,0.545997,0.452985,0.485436,0.500913,0.39956,0.401038,0.472233,0.420871,0.352091,0.405045,0.362212,0.199378,0.244583,0.127121,0.158316,0.170777,0.224119,0.147669,0.077335,0.083087,0.122185,0.157034,0.125234,0.118044,0.066737,-0.000727,-0.003709,-0.113783,0.003668,-0.016849,0.043135,0.007662,-0.023449,-0.043156,-0.073778,-0.116334,-0.10319,-0.116698,-0.165978,-0.230505,-0.276572,-0.198848,-0.254434,-0.285213,-0.230166,-0.195528,-0.297836,-0.318815,-0.350755,-0.372728,-0.361303,-0.411875,-0.35186,-0.360318,-0.372568,-0.299315,-0.19609,-0.076185,0.199392,0.457016,0.690592,0.956156,0.921023,0.853865,0.679362,0.343345,0.039061,-0.235797,-0.693482,-1.157751,-1.378688,-1.603559,-1.525142,-1.471164,-1.511652,-1.608432,-1.64717,-1.696614,-1.733105,-1.686959,-1.741845,-1.479049,-0.691299,-0.446327,-0.787606,-1.779974,-2.458345,-3.057529,-2.405171,-2.748878,1
-2.095664,-4.182035,-4.30095,-4.247351,-3.824624,-2.964563,-1.748733,-1.449283,-1.017138,-0.390087,-0.290727,-0.260523,-0.237507,-0.265493,-0.198286,-0.236603,-0.203688,-0.10488,-0.218196,-0.220089,-0.181283,-0.18362,-0.209827,-0.248873,-0.319025,-0.172851,-0.268649,-0.334679,-0.286819,-0.416927,-0.381945,-0.44087,-0.526722,-0.430931,-0.509472,-0.495977,-0.395244,-0.391711,-0.365362,-0.360992,-0.30909,-0.213316,-0.125838,-0.021391,-0.000186,0.152937,0.104943,0.144636,0.16495,0.247598,0.148096,0.166756,0.137137,0.131294,0.105367,0.117165,0.144911,0.224326,0.207994,0.183919,0.307542,0.211315,0.211745,0.245686,0.29403,0.272001,0.291167,0.414552,0.440327,0.502724,0.448648,0.501394,0.493336,0.469286,0.592976,0.431529,0.609194,0.622517,0.586813,0.539708,0.479117,0.446467,0.499238,0.49376,0.413444,0.412317,0.41506,0.294921,0.342509,0.407932,0.330232,0.463748,0.40315,0.425101,0.556485,0.704651,0.828167,1.069105,1.093542,1.343752,1.55438,1.818342,1.857252,1.849837,1.831614,1.586643,1.374118,1.113423,0.794455,0.475822,0.143291,-0.165548,-0.275415,-0.406222,-0.447002,-0.436051,-0.482679,-0.481975,-0.420686,-0.559942,-0.628544,-0.484751,-0.381452,-0.402069,-0.48161,-0.448445,-0.410025,-0.336704,-0.067116,0.389361,0.815619,0.854316,1.024822,1.162118,0.990274,0.714927,0.548929,0.826196,0.827788,-1.480492,1
-0.657137,-1.496922,-2.01199,-2.423095,-2.675781,-2.601861,-2.159837,-1.709085,-1.688696,-1.495808,-1.125919,-1.05655,-1.045533,-1.051757,-1.065133,-1.048416,-1.013947,-1.075572,-1.058959,-0.987126,-0.979012,-0.997435,-0.974823,-1.019599,-0.992058,-0.945253,-0.95425,-0.98097,-0.966934,-0.975397,-0.919615,-0.922784,-0.935483,-0.944476,-0.973721,-0.958647,-0.929007,-0.892904,-0.92301,-0.858281,-0.822676,-0.857355,-0.837225,-0.745991,-0.730712,-0.69663,-0.631556,-0.549864,-0.513788,-0.460254,-0.429793,-0.390542,-0.339582,-0.287909,-0.301718,-0.321816,-0.295,-0.214176,-0.206495,-0.184354,-0.184028,-0.129461,-0.131056,-0.159019,-0.119153,-0.0292,0.022764,0.058658,0.029186,0.057546,0.076409,0.101678,0.173966,0.194794,0.213665,0.249497,0.251483,0.24205,0.301291,0.315196,0.299427,0.360266,0.378719,0.362814,0.406194,0.421388,0.403397,0.451842,0.45227,0.438147,0.476112,0.529828,0.474024,0.463346,0.49583,0.578811,0.575462,0.548003,0.663237,0.794115,0.856916,0.917732,1.119101,1.256384,1.368375,1.466972,1.524314,1.55563,1.4773,1.499179,1.322247,1.189848,1.04106,0.888006,0.796259,0.776645,0.805996,0.793611,0.792604,0.868838,0.835561,0.883245,0.916052,0.906829,0.922403,0.914726,0.957111,1.01202,1.076993,1.200825,1.544719,1.69013,1.601686,1.60809,1.475812,1.425032,1.392668,1.374978,1.587308,1.557525,1
1.006661,-0.712977,-2.109085,-3.256289,-4.003786,-3.319976,-2.224466,-1.824146,-1.600101,-0.55259,-0.37391,-0.447425,-0.342195,-0.406223,-0.417569,-0.465136,-0.417963,-0.408668,-0.433603,-0.504143,-0.448538,-0.491572,-0.539823,-0.51206,-0.619538,-0.656594,-0.68969,-0.708008,-0.830933,-0.898963,-1.03429,-1.10469,-1.198025,-1.26836,-1.250557,-1.265666,-1.338276,-1.254498,-1.281404,-1.35122,-1.203774,-1.177127,-0.964412,-0.78746,-0.751339,-0.614958,-0.422364,-0.35577,-0.368926,-0.189587,-0.087355,-0.106799,-0.024061,0.086023,0.096182,0.05585,0.111437,0.098288,0.121585,0.257855,0.277699,0.230244,0.322784,0.33279,0.371783,0.396608,0.480807,0.449512,0.594896,0.598327,0.630359,0.780728,0.711258,0.746293,0.728431,0.752435,0.835386,0.811419,0.752359,0.675206,0.709633,0.62715,0.624875,0.578563,0.485552,0.591084,0.449555,0.422949,0.480196,0.480829,0.546392,0.467156,0.503803,0.457165,0.401556,0.305959,0.388308,0.358412,0.373152,0.338959,0.510271,0.894781,1.075861,1.253243,1.282573,1.488226,1.808585,2.060924,2.115595,1.971663,1.683164,1.404176,1.298328,1.003946,0.493676,-0.080994,-0.241167,-0.236803,-0.206961,-0.30108,-0.198503,-0.15594,-0.242169,-0.270847,-0.238782,-0.174481,-0.174273,-0.193376,-0.263259,-0.183039,-0.051286,0.088748,0.717941,0.771131,0.922755,1.682838,1.807232,1.642135,0.777403,1.170199,1
0.303488,-1.796889,-3.596764,-4.618083,-4.105039,-3.132542,-2.019251,-1.699267,-1.32809,-0.507387,-0.23311,-0.24053,-0.202175,-0.223666,-0.201514,-0.227743,-0.193794,-0.236831,-0.353257,-0.329739,-0.343315,-0.313207,-0.416623,-0.494383,-0.471795,-0.521654,-0.622018,-0.620492,-0.664795,-0.671559,-0.790313,-0.836464,-0.793376,-0.908506,-0.898876,-1.030177,-0.979468,-0.990232,-0.825336,-0.768944,-0.784659,-0.768178,-0.585844,-0.504954,-0.386839,-0.227033,-0.170943,-0.194549,-0.13051,-0.091583,-0.073213,-0.083431,-0.027792,-0.021482,-0.06241,0.059281,0.027505,-0.02359,-0.051861,-0.036831,0.080717,0.029481,0.040966,0.164364,0.031343,0.183731,0.184027,0.279524,0.345219,0.304784,0.441621,0.507058,0.534956,0.535568,0.589609,0.601321,0.63314,0.602176,0.618772,0.600242,0.623143,0.55909,0.553886,0.517289,0.483225,0.502148,0.324387,0.344399,0.284346,0.351894,0.340363,0.322469,0.326944,0.282837,0.300638,0.204079,0.269742,0.499146,0.525506,0.769008,1.024855,1.162039,1.220887,1.409173,1.631447,1.716276,1.650265,1.48602,1.184131,1.02393,0.851831,0.789514,0.535652,0.129883,-0.052806,-0.132492,-0.220607,-0.2299,-0.203126,-0.204788,-0.152679,-0.266518,-0.193027,-0.230961,-0.141909,-0.154569,-0.199608,-0.126054,-0.093395,0.201153,0.807448,1.467677,1.630992,2.071231,2.469398,2.146971,1.283812,0.677625,1.028966,0.350733,1
-0.833541,-1.463315,-2.267973,-2.893047,-3.422044,-3.966189,-3.381966,-2.010688,-1.699331,-1.494384,-0.583483,-0.374363,-0.503684,-0.621278,-0.072647,0.046095,-0.525637,-0.690915,-0.652566,-0.469658,-0.342626,-0.373468,-0.459201,-0.768088,-0.653992,-0.62106,-0.68487,-0.482029,-0.465402,-0.599635,-0.384789,-0.25097,-0.339787,-0.527152,-0.811158,-0.293734,-0.072123,-0.335701,-0.511766,-0.467509,-0.029017,-0.368134,-0.532741,-0.484763,-0.325258,-0.345405,-0.386264,-0.037913,-0.117925,-0.316658,-0.341775,-0.050586,0.090647,-0.021408,0.045424,-0.400652,-0.536625,-0.229637,-0.269155,-0.17795,-0.114724,-0.146793,-0.186613,-0.196482,-0.12575,-0.035822,0.108795,0.01349,-0.00659,0.066913,0.201129,0.338902,0.339578,0.220469,0.261646,0.310038,0.455762,0.360348,0.525777,0.537044,0.515526,0.446716,0.460386,0.36591,0.359614,0.493238,0.466102,0.448529,0.4607,0.474529,0.39578,0.451121,0.45586,0.392936,0.35048,0.458905,0.400509,0.461036,0.618407,0.845843,0.813932,1.103564,1.420495,1.563377,1.981824,2.158029,2.262234,2.269772,2.145483,1.763677,1.602741,1.319052,1.015137,0.649559,0.357532,0.211708,0.129642,0.157739,0.214161,0.162836,0.310521,0.507322,0.514185,0.555097,0.530329,0.587295,0.486796,0.462205,0.536889,0.619015,0.975908,1.806689,2.083868,1.40366,0.506922,-0.629053,-1.348297,-1.571159,-1.319732,-0.408731,1
-0.869182,-2.206586,-2.989571,-3.510035,-3.289364,-3.007315,-2.240611,-1.711585,-1.80555,-1.418332,-0.901734,-0.768253,-0.875757,-0.948603,-0.774895,-0.820882,-0.968683,-0.835263,-0.863835,-0.875446,-0.799029,-0.806448,-0.810502,-0.833836,-0.757048,-0.736297,-0.806262,-0.883133,-0.913466,-0.777453,-0.852495,-0.940517,-0.932805,-0.880506,-0.773254,-0.958644,-0.919538,-0.7998,-0.83439,-0.854713,-0.855831,-0.672164,-0.661092,-0.506978,-0.355395,-0.421771,-0.536252,-0.325963,-0.31717,-0.377306,-0.329891,-0.176494,-0.195709,-0.160406,-0.149246,-0.124091,-0.028447,0.02618,-0.150072,-0.153938,-0.14604,-0.021657,-0.014306,0.039257,0.204935,0.116025,0.084304,0.111239,0.21273,0.261638,0.135369,0.300745,0.451439,0.403572,0.483838,0.51391,0.568639,0.537023,0.418852,0.370961,0.37716,0.47554,0.496425,0.472735,0.446783,0.468397,0.507823,0.539814,0.452662,0.538973,0.39855,0.462456,0.516863,0.468599,0.555776,0.629731,0.773148,0.888067,0.803177,0.769369,1.090631,1.19697,1.329643,1.505015,1.562884,1.576081,1.40327,1.285821,1.104725,1.121968,0.952805,0.783209,0.609461,0.342518,0.405035,0.456447,0.501914,0.523281,0.434532,0.435729,0.588817,0.558939,0.366124,0.417869,0.627888,0.685419,0.599366,0.614415,0.72862,0.872166,1.166905,1.296914,1.288558,1.533431,1.509486,1.390213,1.365502,1.322504,1.852126,1.541934,1
0.194039,-2.626977,-4.094685,-4.530522,-4.122782,-3.082061,-1.90643,-1.6267,-0.988817,-0.262528,-0.354858,-0.243608,-0.211746,-0.264789,-0.232645,-0.243897,-0.30768,-0.289625,-0.268591,-0.276675,-0.375085,-0.357523,-0.486995,-0.557677,-0.443173,-0.542935,-0.592436,-0.600291,-0.627438,-0.74286,-0.667991,-0.853943,-0.816404,-0.929503,-0.929767,-0.938411,-0.932042,-0.941174,-0.945182,-0.875734,-0.745438,-0.726598,-0.667934,-0.391403,-0.35894,-0.363691,-0.248778,-0.244371,-0.179741,-0.137755,0.024927,-0.019682,0.065832,0.132265,0.109215,0.125175,0.276567,0.218311,0.215192,0.271551,0.326624,0.253564,0.282116,0.493072,0.388126,0.427763,0.521775,0.589669,0.616853,0.682998,0.709781,0.740747,0.646516,0.698445,0.630128,0.766374,0.728445,0.661341,0.704551,0.526514,0.63809,0.64316,0.493774,0.551673,0.46525,0.558706,0.440342,0.386932,0.383402,0.410954,0.38578,0.377421,0.402615,0.326487,0.361694,0.36688,0.374024,0.448191,0.591371,0.887799,1.23097,1.312034,1.428437,1.576414,1.790101,1.657684,1.650018,1.624976,1.331313,1.21395,0.961732,0.678001,0.313267,-0.063886,-0.190387,-0.272322,-0.236931,-0.229029,-0.24001,-0.336114,-0.21047,-0.182565,-0.116,-0.174899,-0.17892,-0.10488,-0.090409,-0.120835,-0.051126,0.140084,0.841724,1.270668,1.113584,1.122184,0.886185,0.724368,0.706642,0.867612,1.295147,-1.284823,1
1.381994,0.366216,-2.401998,-4.229397,-4.93727,-5.056184,-3.852633,-2.16587,-1.975625,-1.108136,-0.114639,-0.197916,-0.246022,-0.104141,-0.046411,-0.067893,0.234883,0.321793,0.275635,0.211153,0.255588,0.225963,0.334205,0.269907,0.344605,0.281246,0.554793,0.499932,0.324749,0.192254,0.274768,0.163061,0.076353,0.122412,-0.141462,-0.210374,-0.014105,0.061627,-0.111649,-0.072694,-0.055701,0.066339,0.065868,0.057606,0.232338,0.264572,0.466643,0.525326,0.634073,0.433172,0.398409,0.500804,0.555254,0.698316,0.57229,0.524015,0.648889,0.597467,0.562868,0.584636,0.544155,0.490854,0.573915,0.515149,0.487883,0.597627,0.640415,0.753572,0.65542,0.6551,0.745351,0.74075,0.658202,0.737413,0.599844,0.652704,0.733905,0.610801,0.575327,0.653323,0.648075,0.450934,0.487128,0.378878,0.41128,0.40843,0.222067,0.164961,0.138959,0.220807,0.133765,0.130949,0.061105,0.027412,0.001307,0.075516,-0.014458,0.025507,0.042834,0.134407,0.041721,-0.052772,-0.053966,0.110942,0.261751,0.394165,0.523211,0.846246,1.014927,0.881034,0.623361,0.343294,0.126549,0.031104,0.126914,-0.023385,-0.370959,-0.715931,-0.878297,-0.883724,-1.054056,-1.078006,-1.070288,-1.008688,-1.127736,-1.058495,-0.892732,-0.839039,-0.904362,-1.308129,-1.140519,-0.54975,0.285517,0.60329,0.943507,1.122961,1.202002,0.623891,-0.158107,0.239078,1
0.860182,-0.141862,-1.967378,-2.988894,-3.805493,-3.534936,-2.57274,-1.941084,-1.567929,-0.666607,-0.390571,-0.440486,-0.347727,-0.336344,-0.350927,-0.41944,-0.425386,-0.398429,-0.449303,-0.494098,-0.463151,-0.539096,-0.664902,-0.669836,-0.595772,-0.702554,-0.840502,-0.857966,-0.948296,-0.870693,-1.051573,-1.114101,-1.069365,-1.226425,-1.192534,-1.21034,-1.330285,-1.282157,-1.289428,-1.103787,-1.054033,-1.001743,-1.031815,-0.861514,-0.704421,-0.671672,-0.520763,-0.478669,-0.429877,-0.279264,-0.260865,-0.335117,-0.168619,-0.208169,-0.193048,-0.182487,-0.134857,-0.067826,-0.028168,0.041396,0.046458,0.094237,0.090329,0.222964,0.370015,0.437977,0.393231,0.341725,0.452222,0.503429,0.5296,0.576404,0.638399,0.658974,0.517875,0.556233,0.510955,0.59078,0.559242,0.549868,0.481233,0.470626,0.440197,0.389795,0.367953,0.372775,0.331092,0.386403,0.34362,0.302519,0.427506,0.337908,0.393772,0.314255,0.463018,0.35811,0.306326,0.427413,0.36589,0.450209,0.470553,0.552744,0.926252,1.142321,1.273515,1.446406,1.573699,1.946601,2.266661,2.176093,2.037101,1.858427,1.74443,1.54702,1.263753,0.743927,0.192744,-0.005123,-0.004545,-0.004478,-0.13646,0.041175,-0.01151,0.056577,0.046861,0.044559,0.081305,0.015736,0.11643,0.124441,0.174176,0.381204,1.014294,1.573546,1.26404,1.492234,1.614579,1.394272,0.592712,0.573933,1
-0.501621,-1.088584,-1.939749,-3.888458,-3.95113,-3.70565,-2.87372,-1.951708,-1.150802,-0.888869,-0.451111,-0.129665,-0.062786,-0.150131,-0.306134,-0.604972,-0.780085,-0.685351,-0.648177,-0.642548,-0.566719,-0.499303,-0.455607,-0.497356,-0.478403,-0.43097,-0.348932,-0.381202,-0.344358,-0.2894,-0.350776,-0.34159,-0.358915,-0.355204,-0.425725,-0.399055,-0.454469,-0.433831,-0.497517,-0.594843,-0.60672,-0.610332,-0.597903,-0.591794,-0.557886,-0.527131,-0.547548,-0.474951,-0.41805,-0.379777,-0.334534,-0.302201,-0.29337,-0.332073,-0.276968,-0.262871,-0.254686,-0.278847,-0.249861,-0.324669,-0.30076,-0.375368,-0.286387,-0.309985,-0.325414,-0.29185,-0.264658,-0.270923,-0.236016,-0.228615,-0.225459,-0.206124,-0.223887,-0.218515,-0.144808,-0.119816,-0.147371,-0.037944,-0.085063,-0.046367,-0.033447,-0.004885,0.014001,0.026848,0.053282,0.062308,0.07206,0.102689,0.130767,0.142543,0.212269,0.239124,0.240772,0.257073,0.302288,0.294895,0.236294,0.314842,0.39682,0.408404,0.463355,0.458865,0.526108,0.544104,0.536033,0.556247,0.637021,0.675993,0.765119,0.974036,1.148081,1.3256,1.586533,1.703607,1.763508,1.733021,1.57134,1.41241,1.250731,0.991591,0.645983,0.549697,0.54583,0.628447,0.659945,0.649742,0.631969,0.673074,0.656847,0.704764,0.776846,0.828116,1.196796,1.445075,1.505033,1.765617,2.033467,2.039252,2.589474,2.854707,1
-0.533342,-1.855668,-2.214038,-3.133411,-3.417137,-3.060447,-2.256298,-1.765698,-1.622289,-1.154728,-0.867771,-0.906472,-0.871305,-0.874358,-0.881587,-0.903144,-0.866072,-0.868655,-0.846349,-0.844491,-0.853477,-0.86196,-0.809438,-0.841696,-0.873372,-0.889158,-0.908974,-0.869721,-0.884123,-0.90523,-0.939801,-0.951165,-0.967503,-0.992502,-1.00055,-0.954948,-0.948635,-0.904114,-0.896587,-0.812672,-0.789244,-0.710102,-0.669553,-0.613765,-0.599359,-0.517188,-0.450202,-0.395218,-0.380447,-0.393367,-0.350223,-0.349682,-0.305884,-0.287221,-0.259204,-0.283173,-0.266367,-0.262714,-0.168423,-0.194693,-0.129772,-0.129587,-0.104982,-0.064818,-0.053428,-0.013164,0.050629,0.077997,0.12776,0.165217,0.190378,0.225302,0.24943,0.317329,0.377782,0.389977,0.398442,0.410333,0.410155,0.435941,0.389142,0.425783,0.408879,0.439098,0.417088,0.445161,0.384284,0.457513,0.454423,0.451971,0.452234,0.470062,0.448176,0.494183,0.509647,0.517675,0.67689,0.78404,0.874245,0.945658,1.024896,1.086715,1.252774,1.367545,1.322767,1.326218,1.218443,1.116781,1.048106,0.939743,0.877876,0.810941,0.644228,0.600552,0.608785,0.596909,0.621062,0.633525,0.681341,0.645812,0.678746,0.670059,0.74092,0.787193,0.739835,0.793846,0.820023,0.914868,1.101911,1.40952,1.70477,1.75777,2.014008,2.098302,1.915233,1.582677,1.332192,1.274663,1.199429,0.31686,1
0.851784,-1.486278,-3.904367,-4.941625,-4.282336,-3.097064,-1.931202,-1.56909,-1.05213,-0.106552,-0.066951,-0.112772,-0.058699,-0.046265,-0.133789,-0.176517,-0.111623,-0.136437,-0.11581,-0.213042,-0.205577,-0.29667,-0.308357,-0.455238,-0.500143,-0.452783,-0.573128,-0.702751,-0.645721,-0.69647,-0.781083,-0.891827,-0.920716,-0.914562,-1.026369,-1.002659,-0.978867,-0.904768,-0.695012,-0.684932,-0.519781,-0.456504,-0.31031,-0.266268,-0.101574,0.031052,0.003553,0.040426,0.062551,0.069681,0.220404,0.11792,0.130158,0.246756,0.208266,0.252812,0.29164,0.440667,0.269584,0.443393,0.412742,0.364752,0.462626,0.352372,0.55309,0.593589,0.614589,0.579775,0.669155,0.715678,0.706251,0.773331,0.72942,0.777012,0.701295,0.632034,0.609404,0.57457,0.648863,0.548229,0.438839,0.476392,0.435901,0.458626,0.322018,0.299274,0.25183,0.318201,0.248174,0.23915,0.345822,0.17788,0.160337,0.165017,0.19063,0.266876,0.328338,0.47325,0.65288,0.935633,1.085916,1.235064,1.44114,1.668081,1.752916,1.736341,1.566102,1.26138,0.9763,0.681427,0.518496,0.164885,-0.176022,-0.490257,-0.544657,-0.539813,-0.581558,-0.662578,-0.622856,-0.589547,-0.732321,-0.607695,-0.673423,-0.592101,-0.599316,-0.532528,-0.530163,-0.414046,-0.225103,0.326661,1.029063,0.857631,0.866286,1.124497,1.169914,0.969577,1.128715,1.724453,1.781905,-0.00264,1
0.405063,-1.492167,-3.043682,-4.54577,-4.360636,-3.447116,-2.313015,-1.725849,-1.528554,-0.63867,-0.376825,-0.48128,-0.465013,-0.315731,-0.390318,-0.417029,-0.42017,-0.362813,-0.28319,-0.376958,-0.42788,-0.396539,-0.438027,-0.523653,-0.434378,-0.530583,-0.74205,-0.651967,-0.614461,-0.553307,-0.767897,-0.892662,-0.802077,-0.882849,-0.865723,-0.928879,-0.933326,-0.889584,-0.905177,-0.840114,-0.8017,-0.634034,-0.401855,-0.31076,-0.265444,-0.326036,-0.197043,-0.121223,-0.088213,0.132344,0.080903,0.030939,-0.017912,0.162527,0.143746,0.078192,0.282119,0.189867,0.209513,0.322228,0.195762,0.313612,0.367433,0.608722,0.328834,0.380231,0.418262,0.44467,0.545314,0.563246,0.788045,0.766661,0.63092,0.577373,0.53479,0.540969,0.591719,0.631934,0.592258,0.442729,0.444401,0.423999,0.403441,0.407355,0.521978,0.35379,0.438872,0.319291,0.474207,0.424562,0.33873,0.302986,0.378432,0.345342,0.33042,0.289957,0.481163,0.479701,0.737384,0.990836,1.064877,1.158442,1.450219,1.733962,2.010026,1.936991,1.880579,1.831117,1.579383,1.2725,1.185463,0.818864,0.308719,-0.087379,-0.26094,-0.375737,-0.371606,-0.252182,-0.326089,-0.402221,-0.359316,-0.25799,-0.285607,-0.508996,-0.300325,-0.35952,-0.33406,-0.23291,-0.134297,0.139876,0.792779,1.440471,1.308232,1.292451,1.285523,0.855745,0.468953,0.20059,0.976152,0.83963,1
-2.342714,-3.664154,-3.61978,-3.605382,-3.587441,-3.478074,-2.887623,-1.93363,-1.443661,-1.376043,-0.93933,-0.644692,-0.529949,-0.551752,-0.522252,-0.493123,-0.588911,-0.467449,-0.400975,-0.431546,-0.470198,-0.444694,-0.437064,-0.465676,-0.491317,-0.532555,-0.432124,-0.433018,-0.357063,-0.229337,-0.238809,-0.302913,-0.346178,-0.308109,-0.147813,-0.126158,-0.17099,-0.149707,-0.150795,-0.068107,0.024839,0.20395,0.148134,0.124813,0.267876,0.440644,0.509663,0.611482,0.647408,0.616437,0.621681,0.657234,0.583072,0.461454,0.428355,0.468105,0.292319,0.306917,0.393546,0.401436,0.448957,0.412754,0.322234,0.44566,0.416571,0.378477,0.349747,0.359089,0.314047,0.267158,0.352821,0.341539,0.296898,0.270285,0.252485,0.366782,0.427094,0.450554,0.38971,0.327439,0.311336,0.304446,0.103128,-0.050453,0.273631,0.238997,0.248984,0.213183,0.401608,0.664269,0.720496,0.795414,0.832576,0.977364,1.133029,1.335261,1.491208,1.514876,1.736615,1.904877,1.942672,1.968561,1.671344,1.439871,1.327964,1.163709,1.11418,0.939123,0.708836,0.409562,0.277782,0.134709,0.065745,-0.01389,-0.003845,-0.045558,-0.088683,-0.058289,-0.071773,-0.176958,-0.134712,-0.131234,-0.116779,-0.136517,-0.088805,-0.148631,-0.037178,-0.027414,0.1171,0.391718,0.429371,0.379956,-0.008814,-0.438256,-0.750859,-1.046921,-0.973641,-0.434157,0.231014,-0.51971,1
-0.830812,-3.050562,-4.047605,-4.23266,-3.669619,-2.828234,-1.995891,-1.692275,-1.262289,-0.639729,-0.505831,-0.500048,-0.507569,-0.518526,-0.507693,-0.425796,-0.429588,-0.494672,-0.555703,-0.548195,-0.578201,-0.550336,-0.580732,-0.625853,-0.585328,-0.577364,-0.657485,-0.695493,-0.737016,-0.83202,-0.841163,-0.926535,-0.911192,-0.866367,-0.876103,-0.813613,-0.884513,-0.711686,-0.694291,-0.663693,-0.532696,-0.495553,-0.378954,-0.354239,-0.248754,-0.177155,-0.170748,-0.106152,-0.006826,-0.013239,-0.006804,0.070326,0.076633,0.079222,0.154501,0.110314,0.147863,0.152875,0.231646,0.246428,0.211039,0.198116,0.263931,0.326563,0.385688,0.357419,0.395833,0.502201,0.498128,0.60629,0.556835,0.646304,0.656492,0.724744,0.665935,0.651194,0.709048,0.677493,0.58335,0.578682,0.652146,0.515163,0.561632,0.539182,0.42286,0.546252,0.499081,0.434927,0.453239,0.417823,0.483276,0.419543,0.492339,0.525989,0.440959,0.478533,0.538385,0.750757,0.872177,1.079817,1.220476,1.290105,1.544134,1.715433,1.87694,1.700084,1.646537,1.488252,1.289435,1.140018,0.862185,0.59188,0.172487,-0.129081,-0.143107,-0.259316,-0.291605,-0.225388,-0.215996,-0.235594,-0.223709,-0.257931,-0.161492,-0.282713,-0.318455,-0.239927,-0.206186,-0.161811,-0.032422,0.191974,0.85353,0.948237,0.90354,1.239,1.199447,0.950603,0.939596,1.306431,1.898159,0.170478,1
0.884161,-1.904508,-3.709385,-4.621956,-4.736729,-3.825599,-2.311792,-1.620512,-1.306244,-0.098542,0.10637,0.198375,0.198655,0.137618,0.020096,0.036199,0.151545,0.042447,0.026994,0.062738,-0.03011,-0.031729,0.000731,-0.136892,-0.280356,-0.345875,-0.318839,-0.463,-0.53049,-0.629188,-0.634007,-0.70038,-0.793592,-0.851258,-0.832297,-0.916657,-0.926801,-0.918955,-0.843601,-0.817358,-0.705148,-0.82043,-0.536078,-0.469365,-0.243169,-0.094262,-0.04063,0.064897,0.140702,0.087725,0.099183,0.260418,0.218696,0.293432,0.238947,0.310899,0.351647,0.428584,0.402653,0.398367,0.490326,0.425221,0.491156,0.506758,0.471811,0.514113,0.608314,0.630138,0.807801,0.663556,0.72511,0.903061,0.824375,0.968497,0.91216,0.909981,0.92187,0.872878,0.912037,0.883222,0.690533,0.814712,0.707103,0.72224,0.722265,0.624718,0.483719,0.599157,0.490372,0.481537,0.457008,0.418037,0.366942,0.276968,0.297419,0.28106,0.183151,0.267178,0.171147,0.383208,0.481442,0.28595,0.295018,0.53006,0.64666,0.773364,1.120097,1.492161,1.316952,1.359556,1.155564,0.779095,0.508262,0.691638,0.515309,0.026264,-0.391661,-0.608069,-0.65162,-0.297884,-0.466186,-0.51178,-0.626999,-0.615997,-0.57558,-0.509263,-0.642255,-0.603143,-0.431828,-0.344728,0.306718,1.548267,1.671294,1.207783,1.213045,0.377258,-0.215559,-0.939642,-0.208467,-0.6583,1
1.104851,-0.615047,-2.435768,-3.419215,-4.334261,-4.014565,-2.629394,-1.727761,-1.56726,-0.543444,-0.032608,0.052263,0.047855,0.078844,0.056479,0.065036,-0.132985,-0.106559,-0.166269,-0.167944,-0.177803,-0.338554,-0.399482,-0.466787,-0.407303,-0.525999,-0.453509,-0.590702,-0.692722,-0.739332,-0.812193,-0.898545,-0.930688,-0.854769,-1.035697,-0.978188,-0.990698,-1.083203,-1.028635,-1.043847,-0.983875,-0.92664,-0.846017,-0.650322,-0.658809,-0.577582,-0.426404,-0.241539,-0.299903,-0.232856,-0.166654,-0.16778,-0.226066,-0.03383,-0.091846,-0.107837,0.01243,0.008789,0.135366,0.117156,-0.001962,0.150907,0.090116,0.181957,0.117402,0.300424,0.391882,0.401915,0.430462,0.406665,0.54321,0.559891,0.529726,0.539848,0.683145,0.585525,0.737054,0.528795,0.389525,0.400997,0.418575,0.451117,0.450685,0.552635,0.480971,0.449959,0.445587,0.29426,0.233747,0.268815,0.238097,0.315892,0.38986,0.424614,0.26277,0.175245,0.269519,0.306163,0.185668,0.184848,0.252124,0.372901,0.714213,1.062032,1.190075,1.434988,1.547316,1.954426,2.230051,2.399951,2.180745,1.862329,1.697229,1.232738,1.042,0.724587,0.066087,-0.174062,-0.157364,-0.257228,-0.322603,-0.350086,-0.268172,-0.239519,-0.298552,-0.292789,-0.1705,-0.181101,-0.315131,-0.332502,-0.089673,0.378702,1.454319,1.53312,1.398386,1.706827,1.338531,0.733911,-0.300585,-0.223606,1
-0.695399,-2.000865,-2.631793,-3.309662,-3.695786,-3.514387,-3.095805,-1.983047,-1.124442,-0.84165,-0.364663,-0.001402,-0.019985,0.023049,0.105711,-0.03862,0.12884,0.16927,0.162157,0.059635,0.21489,0.128815,0.0377,0.094186,0.157493,0.082527,0.021674,0.030732,0.072754,0.07309,0.062656,0.038714,0.002775,-0.007015,0.102104,0.118653,-0.00071,-0.05717,0.109249,0.107046,0.111188,0.232364,0.17411,0.303409,0.361166,0.203421,0.314308,0.327459,0.395597,0.407426,0.388402,0.349514,0.376794,0.425909,0.40041,0.418637,0.403245,0.415482,0.303395,0.31712,0.311293,0.345695,0.257117,0.186703,0.349427,0.398404,0.385654,0.364022,0.397342,0.437086,0.339358,0.412064,0.448892,0.591122,0.567447,0.276068,0.362368,0.52457,0.483412,0.630839,0.603201,0.571455,0.456791,0.395282,0.486373,0.528453,0.424598,0.47092,0.510503,0.479021,0.427431,0.455963,0.605727,0.878324,0.938574,1.023772,1.371344,1.553494,1.845514,1.964788,1.973784,1.88532,1.601949,1.555713,1.267694,0.881359,0.667316,0.260751,-0.249622,-0.31971,-0.435016,-0.412815,-0.420665,-0.589164,-0.512452,-0.548606,-0.728879,-0.544101,-0.590751,-0.557766,-0.532021,-0.544895,-0.537997,-0.466898,-0.535876,-0.430961,-0.194115,0.337471,1.060959,1.157503,0.859102,0.228766,-0.736355,-1.540744,-1.840032,-1.93714,-1.306007,-1.43715,-2.022201,-3.176833,1
-1.227759,-3.286158,-4.021375,-4.681,-4.054377,-2.848413,-1.971877,-1.553342,-0.73977,-0.249528,-0.241062,-0.225941,-0.242112,-0.134538,-0.135549,-0.224456,-0.263057,-0.203492,-0.210842,-0.240898,-0.379402,-0.34089,-0.34685,-0.378252,-0.354769,-0.455182,-0.412653,-0.615872,-0.59326,-0.712577,-0.776192,-0.840256,-0.858407,-0.71512,-0.865337,-0.779268,-0.824654,-0.873244,-0.833671,-0.75357,-0.664273,-0.577039,-0.328281,-0.219468,-0.131827,-0.055075,0.023814,0.047383,0.048,0.161103,0.17152,0.16481,0.11281,0.216403,0.15398,0.216036,0.255292,0.200017,0.239016,0.20589,0.286619,0.295618,0.278865,0.305948,0.324015,0.267389,0.343609,0.418076,0.426259,0.45587,0.511978,0.453903,0.565721,0.636943,0.712178,0.70798,0.609972,0.603517,0.631462,0.599332,0.574281,0.590724,0.495265,0.490517,0.545192,0.457606,0.491446,0.407219,0.442433,0.398551,0.366491,0.398497,0.341453,0.365481,0.35561,0.383023,0.404553,0.544076,0.748163,0.936485,1.068469,1.222783,1.336578,1.631686,1.888718,1.859019,1.891918,1.693464,1.581762,1.263508,0.979438,0.749962,0.260196,-0.051818,-0.106734,-0.212868,-0.181005,-0.236917,-0.240976,-0.209198,-0.176922,-0.165459,-0.161635,-0.213713,-0.200632,-0.219461,-0.211646,-0.126183,0.000869,0.382635,1.061924,1.101964,1.112123,1.130015,0.791514,0.261947,0.216349,0.53638,0.552845,-1.808355,1
-1.335391,-3.469011,-3.814886,-4.390504,-4.006289,-3.284897,-2.157103,-1.382129,-1.03015,-0.577657,-0.152247,-0.347349,-0.303949,-0.272714,-0.203822,-0.130907,-0.086812,-0.156653,-0.132589,-0.103724,0.10061,0.210128,0.10829,-0.028556,-0.14064,-0.051812,-0.107263,-0.164266,-0.135311,-0.009037,0.074634,0.172903,0.458991,0.457689,0.057334,-0.249827,-0.142582,0.258033,0.279639,0.073788,0.185026,0.134272,0.204166,0.391883,0.308397,0.316915,0.37525,0.319246,0.129543,0.050297,0.176743,0.218324,0.200856,0.106175,0.08656,0.306757,0.259182,0.043706,-0.060893,-0.18929,-0.23511,-0.108765,0.009186,0.006796,0.109856,0.096633,0.022158,0.006585,0.031847,0.226447,0.311144,0.288215,0.220243,0.26443,0.381366,0.464662,0.606608,0.650255,0.506357,0.399415,0.338024,0.299159,0.342267,0.367274,0.268788,0.257608,0.340005,0.345979,0.34131,0.467615,0.358037,0.360175,0.486692,0.391364,0.543666,0.801552,0.97279,0.947038,1.133136,1.372653,1.733094,2.077357,1.94154,2.067087,1.965931,1.749306,1.526085,1.155163,1.069059,0.721835,0.548531,0.10818,-0.142922,-0.264507,-0.376773,-0.354241,-0.206048,-0.283979,-0.410702,-0.417235,-0.493292,-0.292615,-0.394619,-0.341781,-0.232109,-0.35916,-0.278098,0.083357,0.487947,1.058067,1.096476,0.725583,0.344558,-0.705646,-1.396663,-1.598254,-1.132319,-0.526385,-0.491859,-2.200485,1
-0.570575,-3.018294,-4.255154,-4.170565,-3.825495,-2.95522,-1.756036,-1.505999,-1.114681,-0.414078,-0.209994,-0.25282,-0.179149,-0.255399,-0.226589,-0.239999,-0.251782,-0.310432,-0.290352,-0.285168,-0.318718,-0.332071,-0.436251,-0.379758,-0.415611,-0.510261,-0.54042,-0.619866,-0.69588,-0.676503,-0.70446,-0.725685,-0.812617,-0.862185,-0.754848,-0.8928,-0.907106,-0.783433,-0.831319,-0.754541,-0.69783,-0.688145,-0.620241,-0.581113,-0.390256,-0.39671,-0.298676,-0.048377,-0.159402,-0.012299,0.027222,-0.021089,0.023121,0.075499,0.118852,0.067285,0.127008,0.201185,0.20574,0.207521,0.263098,0.234971,0.26323,0.272387,0.383154,0.382231,0.268142,0.433512,0.427967,0.50722,0.546129,0.519579,0.634207,0.521929,0.616714,0.610242,0.491139,0.575759,0.62302,0.571715,0.623103,0.494068,0.530789,0.589829,0.523126,0.492686,0.476061,0.518157,0.433309,0.466407,0.474858,0.451523,0.433766,0.434351,0.540318,0.722571,0.826427,1.048554,1.112254,1.340278,1.560997,1.700551,1.924083,1.835127,1.873557,1.743468,1.531184,1.421121,1.158227,0.844446,0.456391,0.094327,-0.110867,-0.296594,-0.370124,-0.384102,-0.421969,-0.37909,-0.331934,-0.379925,-0.335596,-0.36886,-0.354065,-0.337588,-0.395248,-0.432478,-0.341531,-0.344439,-0.154491,0.24259,0.807573,0.751694,0.816106,0.911044,0.958945,0.764745,0.876647,1.284151,1.924787,0.481181,1
-0.420194,-2.289541,-3.230651,-3.765561,-3.73261,-3.587057,-2.835079,-1.882829,-1.627484,-1.396148,-0.81737,-0.600969,-0.599097,-0.556733,-0.562518,-0.480965,-0.516651,-0.479453,-0.469141,-0.510859,-0.491467,-0.569162,-0.569198,-0.555722,-0.560692,-0.639244,-0.674723,-0.657076,-0.697631,-0.718623,-0.683022,-0.794052,-0.753417,-0.766026,-0.738258,-0.7805,-0.761007,-0.692768,-0.679944,-0.71245,-0.601525,-0.531601,-0.466217,-0.376868,-0.321106,-0.276961,-0.234745,-0.205916,-0.180135,-0.061638,-0.10557,-0.149142,-0.065153,-0.086509,-0.094128,-0.097792,-0.037322,-0.06779,-0.055179,-0.053068,-0.0431,0.004751,-0.027189,0.012098,0.154218,0.108918,0.109082,0.248476,0.275582,0.336243,0.29353,0.370094,0.397343,0.437094,0.463209,0.526799,0.506666,0.509167,0.490899,0.532362,0.477033,0.571155,0.526676,0.395346,0.474404,0.426944,0.4449,0.423484,0.397782,0.377482,0.427449,0.444983,0.520645,0.530427,0.69082,0.83324,0.918248,1.075241,1.157115,1.312852,1.647978,1.81943,1.916244,1.836149,1.79698,1.672184,1.491328,1.395224,1.080505,0.85725,0.608442,0.221979,0.098965,0.094937,-0.018631,0.068928,0.084733,0.009736,0.048141,0.004588,0.009386,0.001839,0.071356,0.042397,0.04665,0.074311,0.066422,0.193962,0.390976,0.826651,1.12751,1.100476,1.269212,1.382491,1.289163,1.058156,1.028888,1.191011,1.621914,0.263927,1
-1.535842,-3.008645,-3.58769,-4.305278,-4.216541,-3.636192,-2.379914,-1.566276,-1.516406,-0.838565,-0.401798,-0.370976,-0.171804,-0.218067,-0.167012,-0.199656,-0.183301,-0.3044,-0.290977,-0.184995,-0.293523,-0.29429,-0.251985,-0.243148,-0.27642,-0.203886,-0.309029,-0.350368,-0.241293,-0.288231,-0.206278,-0.271961,-0.247972,-0.186893,-0.182882,-0.114118,-0.105822,-0.108909,-0.000615,-0.126247,-0.041926,-0.050347,-0.076603,0.045438,0.181978,0.226423,0.071485,0.094519,0.097125,0.061441,0.134888,0.144136,0.110151,0.043621,0.051161,-0.10145,-0.07352,-0.024527,-0.061865,-0.030024,0.043149,-0.048534,-0.030188,-0.121835,-0.130212,-0.071392,-0.010529,0.040707,0.011227,-0.027053,0.084101,0.205026,0.173495,0.259285,0.274825,0.375781,0.403647,0.318347,0.456269,0.37437,0.318619,0.340784,0.350065,0.454735,0.457331,0.271592,0.229364,0.45579,0.366955,0.302377,0.40372,0.369762,0.36103,0.31707,0.513478,0.671422,0.921871,0.907383,1.058245,1.420289,1.748967,1.945421,1.942867,1.886708,1.771448,1.633322,1.540429,1.180838,1.071092,0.85486,0.470114,0.00443,-0.086121,-0.063349,-0.093972,-0.245283,-0.224163,-0.167513,-0.246471,-0.152894,-0.18139,-0.30479,-0.189485,-0.182809,-0.116588,-0.170047,-0.192952,0.059415,0.596071,1.325767,1.816174,1.67373,1.729908,1.430798,0.872465,0.021157,-0.934319,-0.923354,-0.382061,-1.204688,1
-1.005239,-2.436281,-3.499445,-3.838038,-3.801675,-3.643901,-3.328963,-2.779291,-1.757736,-1.034744,-0.935141,-0.568607,-0.234039,-0.208893,-0.195773,-0.137776,-0.15399,-0.201396,-0.228853,-0.20212,-0.303742,-0.177361,-0.157023,-0.163998,-0.131346,-0.096283,-0.176665,-0.188968,-0.243257,-0.212352,-0.151034,-0.238261,-0.168491,-0.230528,-0.20057,-0.203452,-0.176179,-0.2123,-0.152427,-0.155645,-0.143999,-0.01771,0.009619,0.020635,-0.192017,-0.151403,-0.134023,-0.044068,0.044815,0.120673,0.130539,0.01507,0.12296,0.182112,0.148452,0.144893,0.088951,0.165814,0.036857,0.081489,0.129662,0.091094,0.071504,0.019089,0.002824,0.04708,0.025487,0.018797,-0.044738,-0.11906,-0.016008,0.099762,0.19172,0.179771,0.212331,0.283082,0.283244,0.25873,0.314845,0.432952,0.437697,0.508878,0.372883,0.454467,0.555684,0.543105,0.618702,0.609803,0.694465,0.722087,0.682539,0.911277,0.91662,1.04813,1.252841,1.502122,1.764837,2.044679,2.20404,2.085412,1.771256,1.591752,1.517351,1.341996,1.179373,0.915808,0.638319,0.31522,0.042942,-0.108836,-0.272614,-0.344536,-0.280106,-0.174515,-0.157298,0.001568,-0.055849,-0.164027,-0.163239,-0.261405,-0.226189,-0.177036,-0.233661,-0.260811,-0.193062,-0.073189,0.179898,0.500124,1.037401,1.413576,1.358227,1.267068,0.966721,0.655585,0.226229,-0.301675,-0.593086,-0.234854,-0.182333,-1.572404,1
-0.732242,-2.89211,-4.250247,-4.443208,-3.491005,-2.271394,-1.557154,-1.435758,-0.807141,-0.245598,-0.284505,-0.417871,-0.357913,-0.372132,-0.325289,-0.326448,-0.435219,-0.368907,-0.379376,-0.460379,-0.377438,-0.592182,-0.446168,-0.504315,-0.566925,-0.516457,-0.619925,-0.712023,-0.774829,-0.829496,-0.859749,-0.929609,-0.91038,-0.998062,-0.97408,-0.9449,-0.970128,-0.887442,-0.852496,-0.703434,-0.666127,-0.627873,-0.49903,-0.432677,-0.368213,-0.209515,-0.134954,-0.174335,-0.165015,-0.053942,0.018836,0.022039,0.060547,0.077665,0.05622,0.159331,0.078778,0.092845,0.053993,0.177127,0.292402,0.228552,0.295914,0.297681,0.265553,0.202374,0.276841,0.338879,0.409491,0.487068,0.536007,0.450031,0.424416,0.43715,0.495616,0.499486,0.513359,0.556348,0.600025,0.546961,0.580107,0.537842,0.553957,0.414349,0.467883,0.471915,0.367479,0.419411,0.417999,0.370242,0.430247,0.404101,0.312553,0.368452,0.36787,0.540605,0.685754,0.90114,1.160589,1.35116,1.547322,1.756739,2.014587,2.077272,1.995885,1.868114,1.754257,1.466306,1.196458,0.951185,0.617114,0.179386,-0.089865,-0.190657,-0.202654,-0.235968,-0.27541,-0.290004,-0.328412,-0.38148,-0.314095,-0.314319,-0.332606,-0.310146,-0.342388,-0.345614,-0.328143,-0.292416,-0.096409,0.40148,1.028679,1.041184,1.012467,1.11449,0.985505,0.928561,0.966292,1.20107,1.847435,0.799228,1
-0.890121,-2.962751,-3.933885,-4.146722,-4.018641,-3.480761,-2.385852,-1.71932,-1.496946,-0.897258,-0.506981,-0.385314,-0.468499,-0.367271,-0.393538,-0.395201,-0.318777,-0.422331,-0.359445,-0.339675,-0.351712,-0.401755,-0.407569,-0.427735,-0.364809,-0.48136,-0.45116,-0.472136,-0.564141,-0.516347,-0.618348,-0.65592,-0.642253,-0.677946,-0.637518,-0.652984,-0.540709,-0.589613,-0.506482,-0.51107,-0.433079,-0.403643,-0.317311,-0.281079,-0.215288,-0.18701,-0.085051,0.062131,-0.033424,0.088801,0.043425,0.068831,0.13034,0.066111,0.193413,0.118524,0.180027,0.154502,0.18831,0.181675,0.176443,0.225493,0.284659,0.314197,0.270558,0.302508,0.35516,0.390792,0.390014,0.510799,0.50421,0.564209,0.595582,0.645652,0.671335,0.719492,0.730283,0.63795,0.691267,0.617055,0.621358,0.596025,0.565164,0.590177,0.572437,0.533042,0.376697,0.375487,0.532443,0.381526,0.497561,0.402366,0.377222,0.479997,0.578446,0.696241,0.830224,1.03425,1.061024,1.300001,1.498138,1.717397,1.940844,1.86617,1.753335,1.711298,1.543073,1.333298,1.08567,0.824627,0.515999,0.070408,-0.184855,-0.221273,-0.378885,-0.344552,-0.399141,-0.408265,-0.321587,-0.370674,-0.379196,-0.398132,-0.389582,-0.405955,-0.376094,-0.352505,-0.330472,-0.327018,-0.111584,0.292329,0.863536,0.860824,0.95851,1.015645,0.95769,0.630413,0.650711,0.730733,1.364957,0.355475,1
-1.167315,-3.805148,-4.373628,-4.352754,-3.278575,-2.296472,-1.582364,-1.158041,-0.30166,-0.068039,-0.280442,-0.087593,-0.220542,-0.111187,-0.141474,-0.123857,-0.180933,-0.265358,-0.226056,-0.373558,-0.317013,-0.463808,-0.517911,-0.432229,-0.526811,-0.534499,-0.668158,-0.724174,-0.754965,-0.70433,-0.893806,-0.910442,-0.922314,-0.94744,-1.001078,-1.01834,-0.965971,-0.912483,-0.957549,-0.802734,-0.614194,-0.580576,-0.530931,-0.427221,-0.423844,-0.271514,-0.184794,-0.133023,-0.07139,-0.11821,-0.168636,-0.142678,-0.076373,-0.032988,-0.059223,-0.022415,0.103509,0.014136,0.027919,0.132827,0.153114,0.131876,0.161267,0.186323,0.323328,0.324073,0.206627,0.263343,0.436285,0.396325,0.497883,0.548881,0.616853,0.563326,0.617581,0.444273,0.470082,0.628041,0.607864,0.529066,0.501042,0.406468,0.401409,0.205355,0.258314,0.369262,0.358772,0.28245,0.218214,0.356323,0.122089,0.181524,0.208435,0.262452,0.294283,0.322496,0.339145,0.328242,0.53033,0.751084,0.8935,1.134092,1.210789,1.394343,1.659275,1.911118,1.819334,1.746725,1.635848,1.397266,1.219365,0.969655,0.705617,0.300526,-0.054225,-0.194315,-0.193716,-0.137373,-0.205058,-0.150211,-0.196043,-0.168714,-0.181046,-0.108713,-0.085562,-0.06373,0.005656,0.055309,0.239453,0.743822,1.692068,1.930773,1.729575,1.878115,1.371425,0.735366,0.301911,0.584934,1.173603,-0.554189,1
-1.623566,-3.399756,-3.676455,-4.235902,-3.92808,-3.107006,-2.168903,-1.506966,-1.391101,-0.783072,-0.454458,-0.480432,-0.378383,-0.218721,-0.460456,-0.371509,-0.266336,-0.415104,-0.511875,-0.556701,-0.403088,-0.403527,-0.32355,-0.467208,-0.487549,-0.466722,-0.367973,-0.34876,-0.502599,-0.544596,-0.396961,-0.409007,-0.522329,-0.5695,-0.44796,-0.427973,-0.414668,-0.20869,-0.121525,-0.23345,-0.309096,-0.104712,-0.065849,-0.119695,-0.067256,-0.051352,0.01446,0.014593,0.087652,0.181289,0.266068,0.089541,0.128146,0.116298,0.187649,0.177036,0.143691,0.112246,0.152683,0.135137,0.094755,0.227502,0.168608,0.077687,0.166858,0.192189,0.209041,0.315438,0.33199,0.212484,0.227395,0.212821,0.217319,0.32386,0.492528,0.446609,0.457236,0.525192,0.362658,0.420617,0.692806,0.606824,0.548772,0.498502,0.53549,0.527857,0.415045,0.514407,0.52922,0.464165,0.409073,0.454628,0.441887,0.591054,0.833049,0.889683,0.864718,0.674504,1.042266,1.354338,1.695282,1.997773,2.184659,2.181791,1.913335,1.77318,1.790316,1.394721,0.995531,0.648649,0.364271,0.221271,0.064669,-0.187597,-0.040154,-0.009151,-0.262342,-0.276946,-0.111464,-0.077797,-0.093049,-0.13828,-0.250977,-0.247534,-0.09332,-0.046039,-0.100571,0.053832,0.330455,0.827506,1.462574,1.520196,1.269754,0.759593,0.442188,-0.115446,-0.681625,-0.864679,-0.442534,-1.509217,1
-0.362239,-1.78448,-2.50832,-3.354448,-4.064445,-4.082638,-3.147264,-1.948188,-1.6159,-1.153468,-0.507349,-0.382027,-0.429566,-0.410648,-0.411869,-0.456379,-0.415529,-0.33841,-0.369422,-0.425836,-0.427372,-0.457052,-0.459008,-0.427892,-0.4066,-0.505147,-0.428659,-0.450814,-0.442794,-0.352951,-0.464911,-0.442582,-0.473878,-0.479214,-0.48162,-0.416896,-0.391301,-0.457459,-0.367151,-0.281828,-0.262503,-0.199825,-0.140668,-0.074567,-0.036286,-0.037844,-0.049748,-0.044947,0.023969,0.124311,0.109096,0.054363,0.015615,0.084814,0.227233,0.080304,0.086959,0.201744,0.135527,0.139752,0.149257,0.269222,0.236676,0.233124,0.335901,0.220535,0.330016,0.4313,0.423929,0.531146,0.435269,0.626597,0.554319,0.52266,0.57223,0.606594,0.613751,0.591773,0.708742,0.643008,0.601204,0.59994,0.607574,0.670238,0.648858,0.617299,0.571261,0.528388,0.532426,0.526883,0.424681,0.47753,0.420078,0.482019,0.507825,0.552905,0.819026,0.884565,1.165507,1.334961,1.517087,1.870436,2.028177,2.106068,1.971063,1.866791,1.665706,1.528862,1.348178,1.107647,0.834902,0.463307,0.078313,-0.099346,-0.22447,-0.160687,-0.202629,-0.222769,-0.21304,-0.282443,-0.171013,-0.148762,-0.205034,-0.175223,-0.241247,-0.214248,-0.147674,-0.056692,0.185106,0.840457,1.658329,1.568298,1.050271,0.106586,-0.885079,-1.624499,-1.720991,-1.110514,-0.210702,-1.141483,1
-0.904581,-3.974634,-4.5103,-4.673143,-3.724621,-2.25255,-1.636014,-1.383781,-0.400232,-0.141781,-0.223921,-0.173718,-0.199095,-0.189522,-0.152047,-0.204028,-0.196005,-0.182594,-0.153924,-0.240661,-0.277814,-0.277065,-0.375662,-0.377971,-0.371611,-0.440576,-0.454776,-0.595868,-0.666354,-0.575112,-0.710792,-0.777317,-0.869603,-0.853083,-0.921857,-0.980112,-0.905418,-0.858325,-0.827523,-0.743279,-0.700561,-0.698598,-0.539473,-0.418645,-0.382017,-0.229871,-0.180217,-0.189588,-0.076096,-0.149004,-0.113813,-0.009829,-0.048594,0.00293,0.08679,0.014941,0.077043,0.027398,0.080158,0.174614,0.167203,0.144136,0.250659,0.296633,0.37224,0.413936,0.385106,0.430853,0.562439,0.602972,0.597356,0.634549,0.54572,0.506946,0.576449,0.661686,0.614153,0.551163,0.562904,0.528186,0.459674,0.418423,0.397461,0.449109,0.365856,0.319022,0.307261,0.356057,0.357025,0.386633,0.332603,0.34286,0.268821,0.288613,0.257921,0.19086,0.242397,0.267186,0.421645,0.551289,0.985786,1.277882,1.349681,1.528001,1.770163,1.885612,1.809641,1.776735,1.599697,1.422259,1.234888,0.856331,0.631761,0.141282,-0.169772,-0.16504,-0.210688,-0.212774,-0.168325,-0.170737,-0.190001,-0.100303,-0.153273,-0.137291,-0.168982,-0.189969,-0.07216,-0.028513,-0.142315,0.016503,0.319939,1.118221,1.358374,1.13919,1.052753,0.86344,0.840132,0.77195,1.510185,0.283433,1
-2.594905,-4.151465,-4.643428,-4.357692,-3.901937,-2.911837,-1.55537,-1.200612,-0.779761,-0.114259,0.080947,0.075851,0.055182,0.205121,0.296688,0.150133,0.134324,0.242188,0.148485,0.096896,0.17476,0.153585,0.190502,0.074197,0.01295,0.024458,-0.007294,-0.066983,-0.073655,-0.107307,-0.07937,-0.144395,-0.25937,-0.177609,-0.18768,-0.176316,-0.122132,-0.141242,-0.313271,-0.114855,0.059494,-0.0211,-0.106656,0.012203,0.193859,0.077998,0.181235,0.280566,0.30773,0.231597,0.232767,0.334748,0.254085,0.247461,0.174804,0.121,0.18567,0.100479,0.096766,0.135432,0.18,0.118541,0.035527,0.195623,0.051953,0.187156,0.251183,0.195351,0.250099,0.303157,0.336737,0.257209,0.34135,0.339366,0.520081,0.508968,0.469554,0.517648,0.403435,0.393354,0.422982,0.459529,0.401227,0.27213,0.178796,0.325393,0.276595,0.282437,0.183804,0.176948,0.313239,0.288732,0.35924,0.550471,0.745498,0.801533,0.846287,1.099008,1.385383,1.597679,1.807999,1.871149,1.732561,1.560209,1.416305,1.269444,1.003162,0.793689,0.485181,0.13437,-0.205645,-0.463139,-0.54113,-0.45496,-0.478531,-0.626285,-0.604678,-0.643689,-0.570514,-0.59156,-0.641189,-0.589971,-0.596168,-0.645121,-0.557183,-0.565906,-0.388849,-0.095884,0.408144,0.786548,0.669548,0.868798,1.001631,0.798734,0.568908,0.315067,0.464751,0.455883,-0.597225,-2.411321,1
-1.342839,-3.105556,-4.221376,-5.058556,-4.415357,-3.303237,-1.835499,-1.444025,-1.06849,-0.256295,-0.184647,-0.248402,-0.143151,-0.188928,-0.157906,-0.08061,-0.114089,-0.092579,-0.169611,-0.09271,-0.260896,-0.288336,-0.247836,-0.241513,-0.32344,-0.380744,-0.358023,-0.338431,-0.474674,-0.430063,-0.510336,-0.630278,-0.599901,-0.601247,-0.668963,-0.609734,-0.638359,-0.644663,-0.567999,-0.500864,-0.479676,-0.322146,-0.232717,-0.172316,-0.074561,0.022934,0.00832,0.130677,0.081582,0.107254,0.036313,0.000288,0.004923,0.012454,0.035814,0.062862,0.14063,0.106228,0.099532,0.14047,0.134351,0.20826,0.158232,0.187904,0.207974,0.273122,0.369426,0.395469,0.445926,0.46757,0.403866,0.531186,0.492374,0.528555,0.508725,0.672631,0.509532,0.503131,0.502301,0.478638,0.548483,0.52572,0.475966,0.493379,0.44359,0.36462,0.46532,0.406647,0.39767,0.460333,0.410918,0.378316,0.398763,0.421394,0.421215,0.420941,0.407858,0.376913,0.379474,0.457175,0.470208,0.609416,0.805325,0.945788,1.268328,1.31577,1.155965,0.745699,0.648318,0.770001,0.601695,0.642158,0.599419,0.383564,0.081387,0.000982,-0.001871,-0.071063,-0.055176,-0.059997,-0.124535,-0.114591,-0.123082,-0.109994,-0.048607,-0.06489,-0.064877,-0.046175,0.23206,0.743798,1.402359,1.542023,1.768856,2.14194,2.183192,1.465741,0.720229,0.378336,-0.220559,-2.01971,1
0.3222,-2.634568,-3.9478,-4.523899,-4.148792,-2.891457,-1.935295,-1.724825,-0.962418,-0.2338,-0.272742,-0.215623,-0.216045,-0.16953,-0.215568,-0.199873,-0.205323,-0.188218,-0.294104,-0.389783,-0.225119,-0.341136,-0.323962,-0.410271,-0.465041,-0.498196,-0.584034,-0.518694,-0.628151,-0.731803,-0.78233,-0.847759,-0.84232,-0.874218,-0.919526,-0.896645,-0.84184,-0.790807,-0.840796,-0.704232,-0.569163,-0.600677,-0.49008,-0.435344,-0.299154,-0.152828,-0.095379,-0.026256,0.013287,-0.022739,0.128591,0.123463,0.157363,0.269218,0.191867,0.303917,0.307721,0.262611,0.24119,0.312639,0.394837,0.401214,0.49254,0.471869,0.457231,0.575658,0.521518,0.589538,0.744038,0.620067,0.765426,0.77694,0.722205,0.667609,0.720427,0.633225,0.654127,0.705951,0.617504,0.579254,0.537028,0.556742,0.449381,0.466617,0.47676,0.479017,0.414835,0.400318,0.282003,0.425581,0.385627,0.392329,0.33548,0.230071,0.264521,0.185257,0.198656,0.154574,0.355965,0.508606,0.795356,1.129027,1.358188,1.529337,1.765322,2.096675,2.0118,2.021187,1.936049,1.654319,1.286864,1.058743,0.712957,0.134508,-0.274186,-0.31132,-0.44147,-0.517159,-0.359714,-0.460651,-0.485344,-0.471025,-0.430633,-0.433636,-0.422172,-0.398076,-0.394303,-0.446218,-0.326258,-0.199385,0.179186,1.114294,1.090705,0.953154,0.65895,0.226615,0.162383,0.181911,1.401357,-0.203781,1
1.107449,-0.839204,-2.753168,-3.659659,-4.488493,-4.209019,-2.88183,-1.935811,-1.788747,-0.863223,-0.03906,-0.159856,-0.18104,-0.141441,-0.080959,-0.072996,-0.168929,-0.180912,-0.029673,-0.350165,-0.151222,-0.252268,-0.31878,-0.2855,-0.278794,-0.309241,-0.39583,-0.441018,-0.443319,-0.545266,-0.616286,-0.530052,-0.568382,-0.714122,-0.851639,-0.824998,-0.717537,-0.724824,-0.6547,-0.572248,-0.573981,-0.560162,-0.512451,-0.544706,-0.314703,-0.175164,-0.159452,-0.118891,0.02647,-0.015611,0.026691,0.089164,0.034905,0.173443,0.20321,0.212368,0.078739,0.144691,0.249825,0.240568,0.181716,0.230782,0.283451,0.346047,0.350786,0.438205,0.462957,0.389476,0.441986,0.451667,0.664368,0.622603,0.662764,0.711692,0.747475,0.712802,0.623869,0.70911,0.753395,0.628135,0.721464,0.633584,0.550281,0.448957,0.498856,0.532313,0.485767,0.456829,0.364146,0.376833,0.228512,0.270825,0.317421,0.277008,0.251151,0.32267,0.313864,0.198699,0.279237,0.460097,0.655415,0.954801,1.18569,1.302813,1.361717,1.511898,1.942033,2.218457,2.150225,1.921598,1.538883,1.316458,1.010005,0.659997,0.081124,-0.372643,-0.653816,-0.670039,-0.699009,-0.727587,-0.51988,-0.584147,-0.519715,-0.586095,-0.635667,-0.733784,-0.643619,-0.452182,-0.481637,-0.546547,-0.315737,0.440109,0.898475,1.221733,1.560179,1.320904,1.174241,-0.052122,-0.160858,-0.065665,1
-1.426983,-4.148269,-4.526609,-4.393102,-3.352487,-2.18122,-1.644999,-1.408878,-0.441113,-0.245293,-0.305742,-0.323153,-0.220908,-0.278646,-0.255732,-0.225575,-0.223919,-0.250708,-0.299976,-0.272954,-0.286334,-0.282761,-0.315888,-0.38356,-0.353529,-0.466647,-0.385228,-0.543512,-0.590024,-0.666896,-0.737575,-0.761218,-0.746209,-0.870073,-0.847756,-0.859648,-0.854127,-0.823848,-0.739438,-0.785013,-0.694477,-0.553313,-0.467987,-0.433789,-0.30512,-0.258952,-0.131252,-0.09579,0.023263,0.054323,0.096383,0.170675,0.075251,0.057391,0.164697,0.194937,0.202133,0.219498,0.217789,0.286361,0.344592,0.23391,0.295173,0.337868,0.409232,0.419722,0.565415,0.590667,0.618095,0.536729,0.576187,0.707449,0.7259,0.741035,0.69184,0.659376,0.628406,0.768295,0.66615,0.616598,0.534742,0.574558,0.629608,0.526071,0.443553,0.459585,0.470477,0.512796,0.507185,0.413456,0.413193,0.427615,0.328681,0.402128,0.324906,0.398568,0.360254,0.471075,0.671767,0.862394,1.141177,1.227533,1.358816,1.621769,1.761912,1.743123,1.646777,1.54992,1.416431,1.167834,0.93287,0.558564,0.227367,-0.106018,-0.1283,-0.227358,-0.300628,-0.245816,-0.257107,-0.260805,-0.231032,-0.248323,-0.292544,-0.229073,-0.177603,-0.22577,-0.241025,-0.128143,-0.09933,0.270713,0.888982,1.066135,0.962322,0.866699,0.962869,0.870994,0.859517,0.8662,0.725304,-2.256678,1
0.858856,-1.255056,-2.649538,-3.626291,-4.429612,-4.306127,-2.969045,-1.873762,-1.722673,-0.74329,-0.127537,-0.244901,-0.325535,-0.34668,-0.28671,-0.33665,-0.152114,-0.32019,-0.210704,-0.350947,-0.341347,-0.386457,-0.342343,-0.427566,-0.463627,-0.499501,-0.632179,-0.644735,-0.634374,-0.807226,-0.951856,-0.817881,-0.848926,-0.969769,-1.018346,-0.97601,-1.041737,-1.075551,-1.037258,-1.012983,-0.856355,-0.822975,-0.724496,-0.64968,-0.581955,-0.375017,-0.391007,-0.3048,-0.279571,-0.152485,-0.184242,-0.04427,-0.045568,-0.171209,-0.127061,-0.186615,-0.147728,-0.066222,-0.064176,-0.011671,-0.002982,-0.047664,0.011474,-0.005856,0.243621,0.195678,0.259313,0.212864,0.253204,0.342662,0.403813,0.576686,0.492288,0.652364,0.604959,0.670923,0.59009,0.661889,0.65365,0.625487,0.644908,0.626483,0.602214,0.56507,0.484167,0.541241,0.467006,0.332712,0.568033,0.371948,0.457671,0.426856,0.422519,0.255924,0.351762,0.41193,0.421784,0.362309,0.437312,0.453464,0.43371,0.414225,0.487504,0.476272,0.588703,0.921924,0.996091,1.274767,1.625543,1.502588,1.263213,1.140457,0.953722,1.024841,1.120975,0.845533,0.530376,0.227907,0.005893,-0.018944,0.029745,-0.026192,0.078461,0.09654,0.010432,0.064297,0.165335,0.107522,0.155441,0.170409,0.289357,0.700128,1.620762,1.613312,1.764131,2.013809,1.918569,1.482261,0.721869,1.144019,1
-0.882089,-2.559767,-3.441111,-3.971835,-3.753715,-3.250654,-2.055479,-1.477962,-1.406639,-0.866128,-0.566614,-0.535995,-0.480043,-0.476489,-0.526448,-0.537075,-0.48678,-0.520224,-0.536163,-0.479704,-0.585575,-0.553813,-0.538955,-0.562629,-0.566354,-0.63873,-0.635338,-0.675568,-0.724047,-0.714203,-0.719964,-0.813042,-0.763675,-0.870407,-0.887291,-0.896066,-0.978449,-0.890698,-0.896634,-0.844275,-0.757597,-0.80969,-0.760197,-0.548619,-0.560957,-0.410004,-0.457582,-0.37323,-0.23851,-0.235253,-0.142538,-0.171356,-0.107266,-0.045371,-0.142034,-0.110715,-0.003395,-0.028756,-0.056162,-0.053788,-0.021629,0.012791,-0.018584,0.070647,0.044631,0.037295,0.146851,0.126808,0.128669,0.187436,0.153186,0.206094,0.266668,0.322117,0.357817,0.354563,0.364398,0.386697,0.465169,0.417457,0.483357,0.390455,0.463772,0.488032,0.435598,0.461565,0.467555,0.433758,0.445455,0.452686,0.514313,0.522438,0.655748,0.880733,0.947483,1.079943,1.175952,1.30158,1.487915,1.681937,1.695964,1.725199,1.662555,1.575967,1.461593,1.349214,1.204994,1.035114,0.785147,0.510076,0.26534,0.243,0.232127,0.28601,0.229006,0.232955,0.26557,0.239008,0.288899,0.279909,0.197549,0.292633,0.36772,0.275796,0.313961,0.308182,0.524678,0.893175,1.16949,1.214079,1.155548,1.090817,1.113732,1.118498,1.284537,1.393147,1.639077,1.339409,0.54068,-1.000063,1
-2.219609,-4.648587,-4.747667,-4.453076,-3.393372,-2.03726,-1.469315,-1.239148,-0.392351,-0.208685,-0.150307,-0.117094,-0.266272,-0.149352,-0.161173,-0.208796,-0.210635,-0.207047,-0.216616,-0.324077,-0.290401,-0.32428,-0.261159,-0.376413,-0.362099,-0.279083,-0.497352,-0.44071,-0.699263,-0.656935,-0.618427,-0.597683,-0.559145,-0.720496,-0.668739,-0.687158,-0.799721,-0.644365,-0.534683,-0.494554,-0.387918,-0.33497,-0.08423,-0.165502,-0.124501,-0.060879,0.079515,0.079242,-0.01635,0.097018,0.20998,0.058016,0.111098,0.203983,0.105545,0.243269,0.338196,0.157497,0.211868,0.250734,0.250521,0.314994,0.399842,0.372826,0.358807,0.404606,0.600191,0.649433,0.609877,0.577765,0.739775,0.742749,0.727642,0.697655,0.56084,0.565475,0.617871,0.734859,0.515798,0.534389,0.58824,0.533974,0.609964,0.603117,0.418866,0.325939,0.355948,0.316936,0.232782,0.342327,0.439836,0.421802,0.47839,0.223307,0.298395,0.443901,0.439821,0.715805,0.942871,1.070224,0.998393,1.130261,1.452758,1.669937,1.616326,1.343736,1.123415,0.837836,0.838415,0.715448,0.565049,0.24295,-0.113385,-0.232534,-0.277747,-0.224759,-0.272322,-0.415526,-0.345023,-0.298438,-0.292788,-0.414288,-0.461378,-0.482421,-0.489407,-0.499691,-0.313406,-0.280518,-0.246662,0.350954,1.095104,1.390353,1.412166,1.379387,1.387831,0.691481,0.541727,0.988024,0.942777,-1.470901,1
-1.101135,-2.521117,-3.16029,-3.573307,-3.912011,-3.845381,-3.326476,-2.181849,-1.349095,-1.189791,-0.739905,-0.292001,-0.259403,-0.22549,-0.184341,-0.246998,-0.236868,-0.123407,-0.137657,-0.170709,-0.182672,-0.118453,-0.133583,-0.214948,-0.116908,-0.131919,-0.208403,-0.145951,-0.197749,-0.188843,-0.170381,-0.238718,-0.167509,-0.210244,-0.176278,-0.196382,-0.098732,-0.133726,-0.18079,-0.092899,0.029793,0.038338,0.094585,-0.059589,0.083392,0.169841,0.12849,0.22986,0.267942,0.210702,0.20265,0.270547,0.235938,0.202021,0.145432,0.239857,0.217925,0.204856,0.21197,0.168224,0.185291,0.124635,0.058471,0.157861,0.156572,0.115999,0.177582,0.138274,0.211512,0.199294,0.199815,0.350651,0.319125,0.341472,0.436937,0.425545,0.342595,0.385683,0.426037,0.465706,0.528566,0.553376,0.52305,0.526339,0.534658,0.601747,0.581915,0.501412,0.602596,0.629445,0.688311,0.806112,0.952102,1.061392,1.177888,1.305785,1.533882,1.757333,1.834295,1.940537,1.830817,1.738409,1.67487,1.537466,1.28906,1.103263,0.870918,0.661782,0.33546,-0.032025,-0.098528,-0.137383,-0.138468,-0.205291,-0.189563,-0.25689,-0.130335,-0.166631,-0.231232,-0.197021,-0.279914,-0.161194,-0.216264,-0.180485,-0.077665,-0.102273,0.18847,0.852381,1.166837,1.065808,0.83089,0.277876,-0.061995,-0.514379,-0.754495,-0.573697,-0.281032,-0.895871,-1.715962,-2.895977,1
-2.014289,-3.516334,-4.301624,-4.468704,-3.951272,-2.849542,-1.610558,-1.357662,-1.033883,-0.32253,-0.032926,-0.144232,-0.229679,-0.135037,0.031428,-0.057492,-0.072656,0.050411,-0.051241,-0.009499,0.09208,0.07632,0.121101,0.090618,0.122229,-0.024528,-0.045896,0.087211,0.176621,0.103879,0.041423,0.01917,0.115461,0.096093,0.068326,0.222375,0.110843,0.042579,0.029618,0.096137,0.201567,0.330186,0.342073,0.239641,0.385198,0.401526,0.537402,0.424803,0.340496,0.205885,0.128889,0.276867,0.317796,0.161243,0.198182,0.187414,0.075043,0.022684,0.042241,0.060448,0.109081,0.09361,0.096282,0.035505,0.000232,0.006161,0.159,0.053514,0.066147,0.114772,0.16187,0.367213,0.400382,0.381176,0.339346,0.314981,0.372133,0.458701,0.429324,0.359021,0.453316,0.491151,0.491294,0.336602,0.311968,0.39005,0.298739,0.160714,0.30136,0.344897,0.306891,0.271754,0.168736,0.366436,0.578151,0.694144,0.930868,1.061748,1.226905,1.49523,1.678127,1.898597,1.91864,1.7896,1.788426,1.521973,1.415211,1.201781,0.815641,0.498037,0.152676,-0.150856,-0.365903,-0.51978,-0.560397,-0.520319,-0.402999,-0.544769,-0.758985,-0.686439,-0.687935,-0.632414,-0.432977,-0.486825,-0.638623,-0.709154,-0.552289,-0.412532,0.05004,0.81673,1.421186,1.374492,1.179923,0.623542,-0.379864,-1.241249,-1.457418,-1.149988,-0.569405,-1.726833,1
0.78688,0.031394,-1.655758,-2.817662,-3.960138,-4.352263,-3.439117,-2.31398,-1.847107,-1.179664,-0.187597,-0.199959,-0.259989,-0.237151,-0.221857,-0.271846,-0.210701,-0.17711,-0.286521,-0.272816,-0.312767,-0.315546,-0.344273,-0.560343,-0.425062,-0.535485,-0.555107,-0.56389,-0.609167,-0.707271,-0.701359,-0.825554,-0.913748,-0.948544,-0.919137,-1.152978,-1.021025,-1.125814,-1.113177,-1.094393,-1.068742,-0.99808,-0.840389,-0.712642,-0.667527,-0.522293,-0.361006,-0.290255,-0.189777,-0.08568,-0.037727,0.026932,0.05843,0.106416,0.261802,0.160951,0.217257,0.184881,0.163845,0.261602,0.324736,0.232161,0.227539,0.251871,0.393595,0.415224,0.454257,0.38719,0.486418,0.569241,0.542163,0.629268,0.680259,0.783364,0.701092,0.687264,0.727141,0.698953,0.65033,0.724607,0.583719,0.539048,0.564036,0.498844,0.518407,0.547496,0.451216,0.323843,0.464794,0.34409,0.337314,0.345605,0.268133,0.288869,0.302025,0.343485,0.270472,0.24907,0.320372,0.390523,0.591324,0.917087,1.098919,1.246686,1.409912,1.72025,2.025637,2.401854,2.223977,2.031469,1.846796,1.674036,1.212319,0.708745,0.334552,-0.218914,-0.327576,-0.334758,-0.255225,-0.339375,-0.349482,-0.26831,-0.342008,-0.269316,-0.322779,-0.296715,-0.313694,-0.316992,-0.248356,-0.176247,-0.010433,0.642366,1.168281,1.035608,1.189475,1.021251,0.973827,0.114447,0.040713,0.39222,1
1.753771,0.377447,-1.531644,-2.836151,-3.872459,-4.149665,-3.165177,-1.93074,-1.629826,-1.085945,-0.027169,0.11815,-0.062872,-0.01054,0.015507,0.013255,0.01985,-0.144768,-0.153377,-0.082279,-0.105964,-0.245268,-0.230051,-0.278012,-0.33022,-0.411431,-0.381143,-0.500821,-0.568816,-0.684124,-0.825881,-0.843971,-0.978211,-0.965364,-1.048339,-1.160876,-1.319927,-1.268732,-1.278261,-1.280484,-1.222146,-1.190442,-1.088943,-1.014435,-0.853123,-0.802414,-0.798785,-0.486906,-0.414042,-0.225115,-0.206557,-0.177808,-0.096451,-0.046847,-0.26436,-0.157562,-0.059328,-0.065589,-0.065789,-0.0692,0.04327,0.135678,0.095779,0.031933,0.228556,0.215288,0.382287,0.30957,0.369804,0.62712,0.619274,0.729225,0.698454,0.824244,0.752474,0.786779,0.748187,0.658651,0.656902,0.724085,0.776776,0.830059,0.539327,0.577979,0.430769,0.622834,0.430353,0.332829,0.394364,0.472436,0.239316,0.293727,0.369978,0.404645,0.329168,0.261282,0.245464,0.353877,0.373665,0.237474,0.609033,0.633593,1.022197,1.133606,1.131212,1.407759,1.609398,1.965797,1.622137,1.409718,1.015195,0.852887,0.865164,0.906067,0.764308,0.188816,-0.149336,-0.172793,-0.243487,-0.28637,-0.303985,-0.264409,-0.200077,-0.277604,-0.27219,-0.165734,-0.371928,-0.211122,-0.210292,-0.081402,0.277219,1.204625,1.981789,1.716358,2.243991,2.236272,1.523002,-0.185204,-0.662301,-0.019418,1
1.05151,-1.414384,-3.815472,-4.636199,-4.240546,-3.446533,-2.134832,-1.485632,-1.349111,-0.494252,-0.16698,-0.202448,-0.162189,-0.104273,-0.04148,-0.079928,-0.055012,-0.145185,-0.163018,-0.221303,-0.24946,-0.293807,-0.331888,-0.336616,-0.360036,-0.3867,-0.510067,-0.540623,-0.5559,-0.595648,-0.68287,-0.791832,-0.817983,-0.828318,-0.769918,-0.892343,-0.897153,-0.810086,-0.833184,-0.755949,-0.634749,-0.504752,-0.351614,-0.388174,-0.32009,-0.14467,-0.081789,-0.081208,0.073867,0.12045,0.068718,0.093047,0.107331,0.113973,0.117477,0.142477,0.185394,0.179459,0.203382,0.128094,0.171231,0.297311,0.291475,0.341537,0.353293,0.358213,0.471454,0.495918,0.600394,0.500907,0.573318,0.669547,0.727374,0.619355,0.622079,0.598294,0.567725,0.514578,0.558004,0.557373,0.563065,0.425129,0.400684,0.371311,0.31155,0.388029,0.356754,0.306293,0.296616,0.114655,0.228301,0.30447,0.236563,0.262835,0.391211,0.495087,0.5831,0.744443,0.966652,1.102521,1.399673,1.647905,1.861992,1.761841,1.75385,1.617653,1.388387,1.095708,0.905213,0.600271,0.171764,-0.255257,-0.389858,-0.438678,-0.501304,-0.511673,-0.524735,-0.491032,-0.475819,-0.52581,-0.48094,-0.625096,-0.579867,-0.44479,-0.414952,-0.480642,-0.437489,-0.392416,-0.090462,0.437277,0.757601,0.716462,0.889408,1.134734,1.254137,1.105061,1.25296,1.903007,2.089015,0.099279,1
1.92236,0.320326,-1.803277,-3.016993,-4.028803,-3.974369,-2.702564,-1.771554,-1.716248,-0.886257,0.008173,-0.287486,-0.238377,-0.235278,-0.25885,-0.234647,-0.25403,-0.357276,-0.241113,-0.38003,-0.467743,-0.393551,-0.44257,-0.4942,-0.457613,-0.524624,-0.656195,-0.685373,-0.707223,-0.761889,-0.805661,-0.852227,-0.939293,-0.967062,-0.942535,-1.315333,-1.098878,-1.105469,-1.120727,-1.194341,-1.026785,-0.943836,-0.889531,-0.81335,-0.734643,-0.588143,-0.449062,-0.458178,-0.253462,-0.238456,-0.112211,-0.111837,-0.091162,-0.001285,-0.032294,-0.066047,0.064318,0.026191,0.043658,0.168206,0.103333,0.137129,0.243056,0.225776,0.210829,0.273144,0.316395,0.340095,0.399303,0.405845,0.585797,0.596008,0.610518,0.603386,0.607549,0.721327,0.738316,0.83256,0.685303,0.745486,0.692904,0.692613,0.554949,0.562268,0.603943,0.54958,0.448951,0.369111,0.345677,0.319782,0.434123,0.302672,0.315697,0.266307,0.312798,0.279675,0.219115,0.317702,0.268595,0.28978,0.389899,0.642003,1.046982,1.160909,1.206199,1.330583,1.798571,2.114011,2.106781,2.004323,1.889038,1.645723,1.407027,1.071198,0.753132,0.130238,-0.271862,-0.29884,-0.289091,-0.288994,-0.499959,-0.321845,-0.355196,-0.380579,-0.279587,-0.35157,-0.356325,-0.42431,-0.275782,-0.233695,-0.256768,-0.216264,0.286381,0.765305,0.961034,1.66403,1.866216,1.961709,1.108448,0.840241,1
1.847114,0.231475,-1.685758,-3.007189,-3.851037,-3.965814,-2.711382,-2.042737,-1.678103,-0.741991,-0.276328,-0.364346,-0.259624,-0.30724,-0.394785,-0.329577,-0.327483,-0.346518,-0.356439,-0.417393,-0.539787,-0.468796,-0.517026,-0.561953,-0.624273,-0.650609,-0.748701,-0.798302,-0.763724,-0.911651,-0.910714,-0.946163,-0.989144,-1.089435,-1.059024,-1.006916,-1.060617,-1.259531,-1.051252,-1.02094,-0.990941,-0.800985,-0.785804,-0.669669,-0.5683,-0.491468,-0.377369,-0.263424,-0.168864,-0.160907,-0.207196,0.02976,-0.147547,-0.108748,-0.085543,0.0236,0.047982,0.101666,0.082609,0.093399,0.155998,0.11705,0.119299,0.114763,0.204239,0.293289,0.317836,0.38564,0.425653,0.430833,0.47873,0.57387,0.632694,0.699858,0.64148,0.611753,0.63744,0.716694,0.597309,0.496405,0.457584,0.599887,0.550401,0.418485,0.479958,0.434437,0.392795,0.460761,0.465157,0.391216,0.339152,0.31502,0.282561,0.315282,0.35388,0.330381,0.26579,0.392038,0.315366,0.354961,0.504014,0.838592,1.085381,1.365952,1.435951,1.546902,1.964765,2.300386,2.307099,2.231466,2.067452,1.876803,1.552082,1.240293,0.696435,0.00728,-0.186719,-0.3032,-0.412975,-0.28909,-0.272042,-0.264112,-0.25948,-0.333069,-0.370798,-0.19532,-0.358236,-0.272208,-0.18302,-0.247068,-0.186281,-0.074198,0.562652,1.072725,1.119293,1.448185,1.320468,1.126248,0.616547,0.766358,1
-0.560057,-3.435167,-4.17326,-4.435078,-4.226178,-3.2485,-1.418405,-0.650341,-0.437721,0.279898,0.621421,0.44981,0.537172,0.627865,0.617524,0.549342,0.411936,0.560055,0.511278,0.513388,0.482024,0.339123,0.493841,0.330233,0.247378,0.237152,0.196753,0.224083,0.242188,0.167345,0.099798,0.047857,-0.012292,0.011761,-0.034538,-0.128103,-0.163476,-0.118714,-0.041024,0.013938,0.019236,0.099861,0.04896,0.168422,0.393517,0.449237,0.491433,0.554687,0.492285,0.526004,0.386401,0.526758,0.465449,0.62671,0.398216,0.395627,0.516683,0.387178,0.358133,0.568664,0.447638,0.509264,0.533821,0.507613,0.451541,0.366477,0.470237,0.619283,0.551209,0.526431,0.578965,0.566545,0.620756,0.58934,0.453723,0.601562,0.541423,0.573876,0.66446,0.471503,0.42994,0.443598,0.418058,0.263904,0.262752,0.289089,0.280905,0.132568,0.211195,0.200243,0.066237,0.213462,0.207055,0.133512,0.107631,0.229248,0.40796,0.554202,0.739454,0.960098,1.009448,1.161308,1.401367,1.617823,1.662346,1.4844,1.279043,1.197648,0.979433,0.583759,0.448846,-0.056951,-0.58639,-0.904985,-1.019747,-1.040784,-0.969762,-1.032316,-1.243006,-1.02176,-1.156178,-1.175892,-1.20021,-1.346468,-1.280399,-1.275762,-1.318646,-1.234221,-1.181072,-1.048601,-0.647599,-0.252133,-0.234259,-0.058478,-0.147961,-0.293022,-0.22915,-0.477508,0.149369,-1.342077,1
0.703992,-1.609285,-3.77212,-4.398826,-4.980596,-4.327296,-2.581336,-1.39426,-1.238697,-0.477006,0.264782,0.270578,0.230549,0.206619,0.313337,0.266973,0.253572,0.173729,0.29505,0.176732,0.12633,0.128004,0.119366,0.140075,0.112911,0.050098,-0.111013,-0.082037,-0.133175,-0.173156,-0.317612,-0.341573,-0.207568,-0.333797,-0.287554,-0.275765,-0.316211,-0.373653,-0.415214,-0.29922,-0.389744,-0.33333,-0.137784,-0.14008,-0.108467,0.009989,0.13294,0.153433,0.242748,0.203221,0.288166,0.314216,0.262809,0.404637,0.493071,0.435966,0.444901,0.453078,0.514323,0.509325,0.499713,0.482701,0.579051,0.603381,0.626988,0.774165,0.620667,0.74648,0.903616,0.787025,0.690565,0.773428,0.799398,0.735337,0.783425,0.827102,0.807752,0.780836,0.755144,0.79331,0.735492,0.733288,0.624164,0.646238,0.498055,0.449293,0.452484,0.493933,0.427408,0.398077,0.48371,0.34216,0.281323,0.298006,0.351831,0.216323,0.328494,0.369317,0.44543,0.684003,0.911871,1.145086,1.163704,1.186372,1.442729,1.544145,1.305253,0.8226,0.566862,0.349136,0.442709,0.391599,0.113013,-0.361352,-0.652221,-0.814599,-0.940971,-0.873118,-0.759232,-0.921417,-0.954102,-0.816902,-1.05712,-1.123071,-1.082802,-1.016773,-1.007029,-1.143905,-1.049146,-1.005564,-0.562833,0.123994,0.06305,0.225082,0.130651,-0.063264,-0.034909,0.028877,0.988057,0.527278,1
0.169585,-2.495972,-4.214951,-4.946632,-4.428282,-3.35903,-1.808807,-1.232226,-0.879784,0.086027,0.092397,0.130411,0.278522,0.17217,0.162679,0.071783,0.232507,0.133187,0.112415,0.05212,-0.037775,-0.0133,-0.125884,-0.04558,-0.027368,-0.107444,-0.058755,-0.156147,-0.202446,-0.221722,-0.321124,-0.358794,-0.507445,-0.438019,-0.500635,-0.494987,-0.664442,-0.507389,-0.401861,-0.505215,-0.434885,-0.324975,-0.225114,-0.180729,-0.15318,-0.111674,0.024542,-0.041302,0.085297,0.126336,0.10108,0.009381,0.022531,0.057641,0.035125,0.186087,0.110402,0.085044,0.076853,0.113028,0.134289,0.061975,0.176421,0.179741,0.236071,0.316602,0.332815,0.419362,0.418531,0.402753,0.436927,0.592099,0.61106,0.503785,0.551805,0.622342,0.551767,0.574734,0.522536,0.551152,0.413361,0.434237,0.429305,0.525981,0.522602,0.477549,0.353905,0.40005,0.402311,0.247117,0.349131,0.315922,0.333287,0.326903,0.410316,0.422404,0.505153,0.732798,0.930004,1.032741,1.051262,1.18025,1.438494,1.679485,1.494024,1.198368,0.859882,0.727229,0.631987,0.585466,0.33979,0.060048,-0.156476,-0.217035,-0.310765,-0.359387,-0.395162,-0.44115,-0.498386,-0.443094,-0.353874,-0.366301,-0.431598,-0.367316,-0.282961,-0.449486,-0.383398,-0.253997,0.334863,1.198412,1.49526,1.426543,1.31926,1.121978,0.709838,0.249473,0.911145,0.624668,-1.087255,-3.795196,1
-1.034307,-2.324959,-2.921562,-3.325385,-3.659413,-3.532877,-2.932827,-1.998871,-1.413128,-1.199963,-0.74376,-0.355385,-0.268352,-0.2299,-0.283556,-0.213456,-0.132876,-0.176771,-0.352791,-0.257128,-0.249487,-0.265437,-0.205639,-0.274366,-0.192612,-0.246435,-0.381804,-0.30074,-0.282365,-0.315147,-0.299273,-0.349825,-0.467599,-0.502446,-0.454971,-0.455984,-0.468299,-0.485116,-0.452564,-0.417851,-0.392521,-0.344537,-0.298195,-0.228609,-0.256078,-0.13162,0.022843,-0.014056,-0.018618,-0.092137,-0.049949,-0.131657,-0.010392,0.014093,-0.096794,-0.062747,-0.088095,-0.116286,-0.025349,-0.058812,-0.042665,-0.066039,-0.018083,-0.044312,-0.153609,-0.032392,0.088392,0.086666,0.105775,0.091622,0.099253,0.066914,0.210986,0.183298,0.21888,0.298843,0.383408,0.461867,0.503495,0.527869,0.530428,0.523489,0.460045,0.505534,0.669663,0.558737,0.469505,0.482694,0.634186,0.594355,0.620184,0.620483,0.667386,0.71606,0.770042,0.977582,1.205462,1.342102,1.669047,2.153058,2.3814,2.393787,2.405653,2.163209,1.941892,1.835392,1.557404,1.371743,1.010071,0.526143,0.289623,0.032377,-0.022418,-0.049571,-0.0704,-0.110151,-0.171703,-0.133644,-0.079301,-0.086157,-0.078916,-0.001509,-0.124815,-0.160907,-0.202276,-0.096401,0.012102,0.309545,0.72022,1.413311,1.688871,1.372793,0.940119,0.098332,-0.469784,-0.984247,-1.215135,-1.166201,-0.595697,-0.980222,1
-1.667531,-3.036063,-3.309459,-3.92154,-3.978762,-3.558839,-2.691582,-1.583621,-1.329435,-0.844414,-0.322028,-0.176425,-0.161536,-0.184369,-0.130321,-0.179813,-0.162103,-0.24756,-0.255085,-0.213485,-0.420696,-0.24387,-0.28836,-0.344569,-0.326507,-0.318553,-0.328192,-0.299686,-0.287301,-0.427071,-0.431369,-0.441996,-0.387207,-0.479415,-0.401128,-0.377888,-0.408705,-0.323268,-0.435614,-0.348747,-0.225171,-0.228268,-0.226954,-0.082965,-0.014742,-0.019518,-0.020568,0.101225,0.128711,0.034838,0.091826,0.086925,0.086298,0.157509,0.110409,0.111085,0.094319,0.072521,0.098083,0.061802,0.068754,0.077182,0.071709,0.07743,0.065049,0.01717,0.177723,0.165353,0.13118,0.10336,0.160473,0.279122,0.311794,0.280652,0.324671,0.414153,0.41399,0.564565,0.415612,0.48977,0.576613,0.49595,0.530532,0.592893,0.496567,0.561674,0.501701,0.43006,0.599144,0.597124,0.629737,0.628038,0.7602,0.99695,1.040504,1.153438,1.249519,1.437217,1.735296,1.868445,1.949266,1.907387,1.888106,1.683909,1.603451,1.430981,1.19405,1.005041,0.710948,0.307255,0.053305,0.005561,-0.010828,-0.10821,-0.113007,-0.153816,-0.220319,-0.187978,-0.133375,-0.095583,-0.076358,-0.070357,-0.127652,-0.049754,-0.044864,-0.038512,0.204104,0.750766,1.27662,1.237901,1.083845,0.846654,0.398555,0.070142,-0.178598,-0.267026,0.06621,-0.329235,-1.37909,-2.724058,1
-0.02853,-2.289492,-3.549733,-4.014579,-4.056989,-3.8601,-2.928113,-1.820422,-1.422007,-1.062733,-0.474879,-0.202276,-0.190303,-0.24579,-0.119056,-0.107805,-0.116803,-0.076844,-0.132315,-0.164709,-0.225501,-0.236477,-0.238193,-0.228717,-0.253531,-0.329108,-0.322434,-0.38546,-0.434602,-0.505394,-0.453767,-0.509785,-0.550494,-0.548275,-0.649309,-0.514101,-0.513226,-0.530979,-0.452167,-0.446276,-0.316974,-0.340864,-0.219032,-0.036727,-0.031977,-0.033001,-0.014516,0.040985,0.070372,0.091796,0.031308,0.068455,0.057563,0.098148,0.105075,0.101774,0.118115,0.141641,0.047763,0.048734,0.142066,0.166893,0.135527,0.220113,0.189856,0.265568,0.228438,0.354099,0.36415,0.319799,0.451543,0.415854,0.532616,0.526678,0.568787,0.550107,0.484903,0.561388,0.455864,0.517945,0.506724,0.404443,0.3804,0.461267,0.404956,0.384805,0.347417,0.363156,0.316045,0.274095,0.245981,0.325838,0.421788,0.581471,0.64941,0.752887,0.908508,1.034418,1.17793,1.4912,1.761969,2.040707,2.043821,1.975945,1.9363,1.643447,1.445303,1.159741,0.957492,0.541273,0.08706,-0.111248,-0.21829,-0.405596,-0.363402,-0.355271,-0.408777,-0.526117,-0.453203,-0.440326,-0.352498,-0.437138,-0.437888,-0.383466,-0.432966,-0.319399,-0.249455,-0.101,0.228843,0.69837,0.844088,0.989854,1.084307,1.071673,0.823523,0.587181,0.870994,1.318106,0.416291,-2.252547,1
2.104368,0.340814,-2.434759,-3.721365,-3.996241,-3.984861,-3.446687,-2.248424,-1.565824,-1.422269,-0.700325,-0.07999,-0.134925,-0.20196,-0.175996,-0.139882,-0.181582,-0.26193,-0.210338,-0.196286,-0.163688,-0.165372,-0.200031,-0.273771,-0.320428,-0.360938,-0.443949,-0.40689,-0.469249,-0.63816,-0.644251,-0.640494,-0.714331,-0.786828,-0.778673,-0.746664,-0.78845,-0.832595,-0.755176,-0.755448,-0.669523,-0.626687,-0.597675,-0.499298,-0.426651,-0.309204,-0.247958,-0.073185,-0.051347,-0.063221,0.041566,0.103898,-0.015441,0.12046,0.125994,0.188364,0.2396,0.172452,0.193323,0.264183,0.226336,0.257268,0.295236,0.310504,0.327748,0.355069,0.411491,0.459969,0.487101,0.511628,0.580372,0.547696,0.580976,0.655044,0.60907,0.583349,0.583507,0.648104,0.543695,0.573794,0.523744,0.513502,0.455909,0.420564,0.462566,0.366011,0.341697,0.402335,0.398696,0.259178,0.330696,0.29657,0.260036,0.318004,0.421815,0.585311,0.679332,0.798481,0.958498,1.082492,1.282067,1.631921,1.729173,1.765101,1.733677,1.573445,1.42973,1.244698,0.996351,0.632501,0.286154,-0.063329,-0.361124,-0.447162,-0.472502,-0.513459,-0.579927,-0.519156,-0.572215,-0.576528,-0.638336,-0.509404,-0.46156,-0.555474,-0.574569,-0.511434,-0.452541,-0.334602,-0.072585,0.517909,0.77336,0.755737,1.234996,1.44841,1.386697,1.055011,1.119286,1.654177,1.443284,-1.226975,1
3.206123,1.825166,-0.926295,-2.454381,-3.6197,-3.721448,-2.530847,-1.219486,-1.290387,-0.575373,0.547802,0.584912,0.605511,0.579291,0.667627,0.525199,0.585045,0.645941,0.55046,0.521816,0.421448,0.356369,0.349312,0.268699,0.208255,0.213332,0.196152,-0.048238,-0.066903,-0.112994,-0.334336,-0.203548,-0.518773,-0.458002,-0.485256,-0.521877,-0.628044,-0.529843,-0.523159,-0.520444,-0.514626,-0.479717,-0.203723,-0.16321,-0.113256,0.104127,0.206484,0.407317,0.364799,0.274856,0.30305,0.370973,0.396086,0.380949,0.524111,0.389129,0.485282,0.486998,0.357007,0.399102,0.405682,0.410408,0.381427,0.438815,0.579294,0.439108,0.493367,0.486737,0.544637,0.522081,0.666285,0.526175,0.692572,0.657788,0.674864,0.751086,0.75827,0.754114,0.734812,0.67917,0.620735,0.633026,0.530688,0.552219,0.40047,0.322834,0.250222,0.2579,0.209822,0.062262,0.15107,0.161582,0.163016,0.148872,-0.00165,-0.078722,-0.139029,-0.151229,-0.072369,0.008533,0.352424,0.693886,0.896513,1.096127,1.14362,1.475073,1.847529,1.835882,1.72511,1.524272,1.205869,1.154617,0.644197,0.313506,-0.395392,-1.187767,-1.378886,-1.414134,-1.420654,-1.543138,-1.410162,-1.540884,-1.48368,-1.514717,-1.691725,-1.7265,-1.652285,-1.733134,-1.686687,-1.700689,-1.660593,-1.445476,-0.754768,-0.415668,-0.155539,0.243575,0.412066,0.282026,-0.255233,0.149609,1
-2.243544,-3.167291,-3.346366,-3.761687,-3.692983,-3.380053,-2.780533,-2.087116,-1.773497,-1.608399,-1.206346,-1.036063,-0.928173,-0.90462,-0.882286,-0.901012,-0.841062,-0.78176,-0.595852,-0.611723,-0.6186,-0.602708,-0.646089,-0.554849,-0.481648,-0.377339,-0.37356,-0.376249,-0.26526,-0.333812,-0.22344,-0.172428,-0.154465,-0.05054,0.000587,0.040775,0.001271,-0.031322,0.05002,0.098851,0.169021,0.199612,0.210217,0.15622,0.165353,0.281492,0.242707,0.227056,0.269786,0.253881,0.318873,0.308232,0.354232,0.29811,0.395174,0.397714,0.33076,0.306341,0.229833,0.25341,0.246739,0.253577,0.244158,0.2983,0.283474,0.203063,0.298884,0.286439,0.356131,0.43733,0.322568,0.404601,0.421796,0.433083,0.438226,0.444388,0.633114,0.60807,0.557613,0.596926,0.617885,0.607789,0.65441,0.574764,0.549298,0.610197,0.552628,0.581842,0.618928,0.645369,0.72297,0.765193,0.822487,0.848776,1.017682,1.135312,1.399855,1.627422,1.748371,1.691411,1.733181,1.593572,1.431853,1.363609,1.165609,1.01892,0.829272,0.59363,0.384207,0.279136,0.20669,0.197151,0.115306,0.119887,0.204085,0.094641,0.02544,0.037624,0.18118,0.081377,0.072938,0.059887,0.108046,0.042809,0.095692,0.179668,0.204465,0.517817,0.916275,1.062501,0.893007,0.456524,-0.196433,-0.684511,-0.94981,-0.926435,-0.625589,-0.283414,-0.576446,-1.351285,1
-0.380445,-2.117886,-3.34543,-4.62568,-4.621504,-3.941614,-2.48564,-1.327265,-1.260294,-0.648057,-0.07166,0.052983,0.239486,0.203349,0.240136,0.265838,0.155104,0.238053,0.223893,0.089115,0.140216,0.086448,0.179921,0.069153,-0.072312,-0.01688,-0.065282,-0.17572,-0.193147,-0.182865,-0.295002,-0.443857,-0.508906,-0.455001,-0.527913,-0.719698,-0.726018,-0.727348,-0.732445,-0.544123,-0.595686,-0.465352,-0.562657,-0.461467,-0.300392,-0.237625,-0.066467,-0.04868,0.060455,0.225722,0.14962,0.133201,0.353654,0.312492,0.183462,0.251836,0.139121,0.134893,0.244012,0.280854,0.347953,0.213457,0.217013,0.291987,0.319793,0.271751,0.245313,0.39409,0.430229,0.485085,0.494631,0.416854,0.375469,0.582419,0.556306,0.449316,0.578273,0.518746,0.521849,0.503569,0.54623,0.691439,0.554373,0.513248,0.526901,0.424895,0.37715,0.336104,0.268366,0.2724,0.288145,0.202243,0.26506,0.502678,0.586209,0.848046,0.94219,1.074296,1.338455,1.364795,1.750245,1.999375,2.034556,1.940974,1.767402,1.519767,1.463571,1.227871,0.895042,0.531218,0.083058,-0.354407,-0.468624,-0.50681,-0.628209,-0.592595,-0.747175,-0.822512,-0.803536,-0.74656,-0.73245,-0.599648,-0.720663,-0.789096,-0.709051,-0.753519,-0.625932,-0.478693,-0.139829,0.644406,0.676565,0.346129,0.471273,0.321632,0.547832,0.429783,0.393748,0.742897,0.88092,-0.288981,1
-1.166665,-2.843215,-3.836643,-4.100035,-3.41822,-2.619124,-1.843506,-1.662615,-1.117035,-0.58801,-0.613866,-0.547791,-0.565753,-0.601631,-0.535874,-0.562661,-0.491118,-0.481522,-0.557134,-0.548251,-0.627224,-0.603203,-0.580303,-0.640885,-0.699091,-0.677212,-0.743147,-0.811866,-0.828218,-0.83704,-0.832668,-0.909502,-1.011451,-0.917719,-0.970398,-0.995426,-1.010709,-0.980899,-0.961985,-0.869808,-0.799932,-0.676594,-0.61034,-0.518298,-0.463783,-0.313029,-0.278365,-0.230392,-0.153343,-0.14967,-0.134814,-0.142709,-0.125725,-0.12228,-0.171754,-0.043618,-0.065377,-0.085336,0.017496,0.009044,0.040194,-0.006252,0.032903,0.060758,0.035458,0.133205,0.114609,0.215588,0.198749,0.229287,0.364431,0.332324,0.368358,0.44643,0.455787,0.448124,0.4535,0.452509,0.408176,0.484774,0.464987,0.440195,0.477672,0.385645,0.412129,0.50667,0.438057,0.477416,0.531464,0.475514,0.419757,0.431654,0.535038,0.491621,0.47084,0.613909,0.863011,0.994785,1.015437,1.143895,1.328494,1.562202,1.745239,1.786742,1.686547,1.587496,1.508563,1.342076,1.134879,0.944847,0.77503,0.530827,0.262974,0.127932,0.114634,0.147668,0.165132,0.220405,0.179657,0.061808,0.247683,0.139014,0.070942,0.178614,0.208476,0.141492,0.100763,0.291324,0.602284,1.161284,1.439861,1.182902,1.392754,1.592993,1.501228,1.254756,0.9378,1.002135,1.446767,1.303412,1
-0.596227,-2.695316,-3.830059,-4.561253,-4.187026,-3.584865,-2.627708,-1.751622,-1.588223,-0.928978,-0.367128,-0.281064,-0.226141,-0.253001,-0.215013,-0.190432,-0.162346,-0.179912,-0.170074,-0.166337,-0.205267,-0.226877,-0.261333,-0.222722,-0.242424,-0.220942,-0.240329,-0.249141,-0.27962,-0.335309,-0.377374,-0.314464,-0.34856,-0.531706,-0.420081,-0.397177,-0.340645,-0.344948,-0.371346,-0.318721,-0.189177,-0.218261,-0.087179,-0.081402,0.01685,0.136683,0.074246,0.200183,0.170889,0.192539,0.155006,0.09605,0.174745,0.232376,0.225828,0.202031,0.229114,0.192855,0.190475,0.216518,0.26199,0.204831,0.260768,0.249449,0.246555,0.300138,0.377872,0.293885,0.375769,0.430701,0.479981,0.475636,0.482446,0.528492,0.57009,0.56876,0.70494,0.570367,0.620233,0.614343,0.480446,0.415858,0.471819,0.434925,0.549852,0.600338,0.662491,0.583139,0.578681,0.432482,0.495193,0.49941,0.471148,0.498548,0.495702,0.728673,0.804992,0.971164,1.150929,1.235351,1.5012,1.669729,1.890552,1.828644,1.708681,1.728219,1.619594,1.387588,1.167995,0.800869,0.553297,0.137029,-0.210838,-0.329772,-0.350815,-0.376401,-0.490231,-0.47227,-0.494286,-0.611923,-0.503298,-0.556062,-0.59738,-0.577456,-0.58628,-0.652818,-0.582399,-0.456509,-0.134508,0.425797,0.708517,0.665828,0.852779,0.773966,0.494959,0.199239,0.375723,0.68617,0.208391,-1.898563,1
-0.790792,-2.739768,-3.725333,-4.29895,-3.896008,-3.531667,-2.542945,-1.639764,-1.534718,-1.011459,-0.539057,-0.463951,-0.340712,-0.40741,-0.416534,-0.323965,-0.308182,-0.329713,-0.323343,-0.384138,-0.308477,-0.296157,-0.409669,-0.318476,-0.413437,-0.451913,-0.46561,-0.520089,-0.540349,-0.54736,-0.541164,-0.604057,-0.649757,-0.610604,-0.65766,-0.661135,-0.643791,-0.702577,-0.600752,-0.530078,-0.468198,-0.460468,-0.396345,-0.353075,-0.265399,-0.18044,-0.155743,-0.020252,-0.011968,0.026364,0.093866,0.036287,0.164731,0.117723,0.152759,0.101985,0.072141,0.212451,0.193962,0.143669,0.147912,0.168133,0.172425,0.252678,0.287217,0.301144,0.294611,0.320586,0.312761,0.391647,0.34894,0.442387,0.465753,0.633908,0.582077,0.517714,0.568464,0.657921,0.641256,0.598669,0.640802,0.614906,0.626086,0.579911,0.598385,0.495437,0.468537,0.468612,0.497457,0.347549,0.396049,0.464674,0.512257,0.570592,0.616843,0.761193,0.764648,1.012741,1.157684,1.370304,1.667544,1.937803,2.024679,2.022309,1.824858,1.622854,1.443512,1.258516,0.964051,0.529066,0.182539,-0.037044,-0.184067,-0.270472,-0.342839,-0.308556,-0.291746,-0.291839,-0.327917,-0.36744,-0.396233,-0.359808,-0.437938,-0.350506,-0.280848,-0.4272,-0.267847,-0.139761,-0.06275,0.364702,0.660415,0.653872,0.683547,0.818979,0.870728,0.984155,1.00688,1.040728,1.400086,1.12959,1
